time_s,ecg_clean_mv,ecg_noisy_mv
0.0000,300.003916,300.026798
0.0010,300.004677,300.040248
0.0020,300.005558,300.087470
0.0030,300.006571,300.085480
0.0040,300.007730,300.089048
0.0050,300.009049,300.073697
0.0060,300.010540,300.070561
0.0070,300.012215,300.009541
0.0080,300.014086,299.999654
0.0090,300.016162,299.946889
0.0100,300.018452,300.090275
0.0110,300.020961,300.019237
0.0120,300.023693,300.030895
0.0130,300.026647,299.872279
0.0140,300.029820,299.980512
0.0150,300.033204,300.064712
0.0160,300.036788,300.037311
0.0170,300.040555,299.994502
0.0180,300.044486,300.030258
0.0190,300.048554,300.144897
0.0200,300.052729,300.044721
0.0210,300.056978,300.073170
0.0220,300.061263,300.076832
0.0230,300.065541,300.096452
0.0240,300.069768,300.153515
0.0250,300.073897,300.222719
0.0260,300.077880,300.175634
0.0270,300.081669,300.114605
0.0280,300.085214,300.161884
0.0290,300.088471,300.025404
0.0300,300.091393,300.096148
0.0310,300.093941,300.058602
0.0320,300.096079,300.061882
0.0330,300.097775,300.135847
0.0340,300.099005,300.154717
0.0350,300.099750,300.019805
0.0360,300.100000,300.078954
0.0370,300.099750,300.057962
0.0380,300.099005,300.127800
0.0390,300.097775,300.154523
0.0400,300.096079,300.216928
0.0410,300.093941,300.167709
0.0420,300.091393,300.168341
0.0430,300.088471,300.062682
0.0440,300.085214,300.078747
0.0450,300.081669,300.112936
0.0460,300.077880,300.233968
0.0470,300.073897,300.102749
0.0480,300.069768,300.162132
0.0490,300.065541,300.060005
0.0500,300.061263,300.069499
0.0510,300.056978,300.059338
0.0520,300.052729,300.026111
0.0530,300.048554,300.076717
0.0540,300.044486,299.970930
0.0550,300.040555,299.939525
0.0560,300.036788,300.015199
0.0570,300.033204,300.055277
0.0580,300.029820,299.990978
0.0590,300.026647,300.147869
0.0600,300.023693,300.034873
0.0610,300.020961,300.042481
0.0620,300.018452,299.991781
0.0630,300.016162,300.075648
0.0640,300.014086,300.096426
0.0650,300.012215,300.054379
0.0660,300.010540,300.057665
0.0670,300.009049,300.049988
0.0680,300.007730,299.987156
0.0690,300.006571,300.097803
0.0700,300.005558,300.003140
0.0710,300.004677,300.098208
0.0720,300.003916,299.945374
0.0730,300.003263,300.046155
0.0740,300.002705,300.006919
0.0750,300.002231,300.000933
0.0760,300.000000,299.965719
0.0770,300.000000,300.031808
0.0780,300.000000,300.029715
0.0790,300.000000,300.098008
0.0800,300.000000,300.048517
0.0810,300.000000,300.000996
0.0820,300.000000,300.005649
0.0830,300.000000,300.047981
0.0840,300.000000,300.109104
0.0850,300.000000,300.055351
0.0860,300.000000,300.086328
0.0870,300.000000,300.047334
0.0880,300.000000,299.934399
0.0890,300.000000,300.045631
0.0900,300.000000,300.007279
0.0910,300.000000,300.072367
0.0920,300.000000,300.088133
0.0930,300.000000,300.091472
0.0940,300.000000,299.990036
0.0950,300.000000,299.974234
0.0960,300.000000,299.983024
0.0970,299.979209,299.975415
0.0980,299.959326,299.974256
0.0990,299.941221,299.907561
0.1000,299.925686,299.945516
0.1010,299.913397,299.836899
0.1020,299.904894,300.043370
0.1030,299.900548,299.924552
0.1040,299.918863,299.936119
0.1050,299.939591,300.006557
0.1060,299.975574,300.056423
0.1070,300.031085,299.965876
0.1080,300.110235,300.107947
0.1090,300.215702,300.313425
0.1100,300.347088,300.411449
0.1110,300.499352,300.455438
0.1120,300.641180,300.709771
0.1130,300.778801,300.821671
0.1140,300.894839,300.856768
0.1150,300.972604,300.973940
0.1160,301.000000,300.917696
0.1170,300.972604,301.018930
0.1180,300.894839,300.982254
0.1190,300.778801,300.777921
0.1200,300.641180,300.663391
0.1210,300.499352,300.549340
0.1220,300.367879,300.391164
0.1230,300.256376,300.192269
0.1240,300.169013,300.265176
0.1250,300.105399,300.209122
0.1260,300.062177,300.139091
0.1270,300.034697,300.144515
0.1280,300.000000,300.029149
0.1290,300.000000,300.052501
0.1300,300.000000,299.989330
0.1310,300.000000,299.974595
0.1320,300.000000,299.947845
0.1330,300.000000,300.025959
0.1340,300.000000,300.010465
0.1350,300.000000,300.060207
0.1360,299.850000,299.769394
0.1370,299.870894,299.893540
0.1380,299.888877,299.989263
0.1390,299.904356,299.930093
0.1400,299.917678,299.988919
0.1410,299.929145,300.078887
0.1420,299.939015,300.045580
0.1430,299.947509,299.919163
0.1440,299.954821,299.985184
0.1450,299.961114,300.026235
0.1460,299.966530,300.009631
0.1470,299.971193,300.080518
0.1480,299.975205,300.013647
0.1490,299.978659,300.009175
0.1500,299.981632,300.063904
0.1510,299.984190,299.935798
0.1520,299.986392,300.027471
0.1530,299.988288,299.969111
0.1540,299.989919,300.038455
0.1550,299.991323,299.981995
0.1560,300.000000,300.035764
0.1570,300.000000,299.985836
0.1580,300.000000,299.918769
0.1590,300.000000,300.041555
0.1600,300.000000,299.964936
0.1610,300.000000,300.111074
0.1620,300.000000,300.070177
0.1630,300.000000,300.082878
0.1640,300.000000,300.035484
0.1650,300.000000,300.049837
0.1660,300.000000,299.931690
0.1670,300.000000,300.066983
0.1680,300.000000,299.986007
0.1690,300.000000,300.053500
0.1700,300.000000,299.976899
0.1710,300.000000,300.056458
0.1720,300.000000,300.029410
0.1730,300.000000,299.950332
0.1740,300.000000,300.080963
0.1750,300.000000,300.002803
0.1760,300.000000,299.969691
0.1770,300.000000,300.068599
0.1780,300.000000,299.993905
0.1790,300.000000,300.018680
0.1800,300.000000,300.110056
0.1810,300.000000,300.059778
0.1820,300.000000,300.076550
0.1830,300.000000,300.044630
0.1840,300.000000,300.020141
0.1850,300.000000,300.037924
0.1860,300.000000,299.935448
0.1870,300.000000,300.084556
0.1880,300.000000,300.076325
0.1890,300.000000,299.967001
0.1900,300.000000,300.054285
0.1910,300.000000,299.879769
0.1920,300.000000,300.130723
0.1930,300.000000,299.991113
0.1940,300.000000,299.991299
0.1950,300.000000,300.053494
0.1960,300.005495,300.046231
0.1970,300.006069,299.949967
0.1980,300.006694,300.034055
0.1990,300.007375,300.059516
0.2000,300.008116,300.003478
0.2010,300.008919,300.091898
0.2020,300.009789,299.995357
0.2030,300.010731,300.094643
0.2040,300.011749,299.993937
0.2050,300.012848,300.049674
0.2060,300.014031,299.989815
0.2070,300.015305,300.109941
0.2080,300.016673,300.129519
0.2090,300.018141,300.148390
0.2100,300.019713,300.037989
0.2110,300.021395,300.015699
0.2120,300.023191,300.101440
0.2130,300.025107,300.051449
0.2140,300.027147,300.015818
0.2150,300.029317,300.016603
0.2160,300.031620,300.054077
0.2170,300.034061,300.119148
0.2180,300.036645,300.012504
0.2190,300.039376,300.139641
0.2200,300.042258,300.073975
0.2210,300.045293,300.153209
0.2220,300.048486,300.090983
0.2230,300.051840,300.151184
0.2240,300.055356,300.074309
0.2250,300.059037,300.141831
0.2260,300.062883,300.156302
0.2270,300.066897,300.032080
0.2280,300.071078,300.206822
0.2290,300.075426,300.051295
0.2300,300.079940,300.176621
0.2310,300.084619,300.096423
0.2320,300.089459,300.158998
0.2330,300.094458,300.142584
0.2340,300.099612,300.106515
0.2350,300.104916,300.084035
0.2360,300.110364,300.122641
0.2370,300.115950,300.119492
0.2380,300.121666,300.172247
0.2390,300.127505,300.169714
0.2400,300.133457,300.137957
0.2410,300.139513,300.128783
0.2420,300.145661,300.181386
0.2430,300.151890,300.208826
0.2440,300.158188,300.184546
0.2450,300.164541,300.248693
0.2460,300.170935,300.224229
0.2470,300.177356,300.288210
0.2480,300.183788,300.259946
0.2490,300.190215,300.272091
0.2500,300.196622,300.214091
0.2510,300.202990,300.307188
0.2520,300.209303,300.256761
0.2530,300.215542,300.311790
0.2540,300.221691,300.293179
0.2550,300.227729,300.244420
0.2560,300.233640,300.231439
0.2570,300.239405,300.275613
0.2580,300.245006,300.266378
0.2590,300.250424,300.256642
0.2600,300.255643,300.250508
0.2610,300.260645,300.411025
0.2620,300.265412,300.257604
0.2630,300.269929,300.238183
0.2640,300.274179,300.360973
0.2650,300.278149,300.310713
0.2660,300.281824,300.334790
0.2670,300.285191,300.281882
0.2680,300.288237,300.369535
0.2690,300.290952,300.360653
0.2700,300.293325,300.390407
0.2710,300.295349,300.366461
0.2720,300.297015,300.320665
0.2730,300.298317,300.251604
0.2740,300.299251,300.290594
0.2750,300.299813,300.287721
0.2760,300.300000,300.276420
0.2770,300.299813,300.399116
0.2780,300.299251,300.407942
0.2790,300.298317,300.317586
0.2800,300.297015,300.388731
0.2810,300.295349,300.365924
0.2820,300.293325,300.327515
0.2830,300.290952,300.363678
0.2840,300.288237,300.261055
0.2850,300.285191,300.278713
0.2860,300.281824,300.374284
0.2870,300.278149,300.393916
0.2880,300.274179,300.383833
0.2890,300.269929,300.276267
0.2900,300.265412,300.362493
0.2910,300.260645,300.340719
0.2920,300.255643,300.320127
0.2930,300.250424,300.280702
0.2940,300.245006,300.253471
0.2950,300.239405,300.309956
0.2960,300.233640,300.308497
0.2970,300.227729,300.255311
0.2980,300.221691,300.285705
0.2990,300.215542,300.287074
0.3000,300.209303,300.258840
0.3010,300.202990,300.229351
0.3020,300.196622,300.266925
0.3030,300.190215,300.304882
0.3040,300.183788,300.214839
0.3050,300.177356,300.310814
0.3060,300.170935,300.208877
0.3070,300.164541,300.327494
0.3080,300.158188,300.265960
0.3090,300.151890,300.192222
0.3100,300.145661,300.134371
0.3110,300.139513,300.162410
0.3120,300.133457,300.163152
0.3130,300.127505,300.151711
0.3140,300.121666,300.126105
0.3150,300.115950,300.154865
0.3160,300.110364,300.144236
0.3170,300.104916,300.106880
0.3180,300.099612,300.198450
0.3190,300.094458,300.202318
0.3200,300.089459,300.148258
0.3210,300.084619,300.196382
0.3220,300.079940,300.182165
0.3230,300.075426,300.120085
0.3240,300.071078,300.170529
0.3250,300.066897,300.101757
0.3260,300.062883,300.094003
0.3270,300.059037,300.164911
0.3280,300.055356,300.152177
0.3290,300.051840,300.140113
0.3300,300.048486,300.115315
0.3310,300.045293,300.013361
0.3320,300.042258,300.015665
0.3330,300.039376,300.102159
0.3340,300.036645,300.114793
0.3350,300.034061,300.039068
0.3360,300.031620,300.158133
0.3370,300.029317,300.042058
0.3380,300.027147,300.135764
0.3390,300.025107,299.997158
0.3400,300.023191,300.042862
0.3410,300.021395,300.106491
0.3420,300.019713,300.077362
0.3430,300.018141,300.137525
0.3440,300.016673,300.110913
0.3450,300.015305,300.169665
0.3460,300.014031,300.070465
0.3470,300.012848,300.036897
0.3480,300.011749,300.074957
0.3490,300.010731,300.059357
0.3500,300.009789,300.039293
0.3510,300.008919,300.022520
0.3520,300.008116,299.988085
0.3530,300.007375,300.119367
0.3540,300.006694,299.977126
0.3550,300.006069,300.045726
0.3560,300.000000,300.051465
0.3570,300.000000,300.065931
0.3580,300.000000,300.050279
0.3590,300.000000,299.986489
0.3600,300.000000,300.025050
0.3610,300.000000,300.068307
0.3620,300.000000,300.076380
0.3630,300.000000,300.021408
0.3640,300.000000,300.115724
0.3650,300.000000,300.040359
0.3660,300.000000,300.168296
0.3670,300.000000,299.985635
0.3680,300.000000,300.104388
0.3690,300.000000,300.079336
0.3700,300.000000,300.057441
0.3710,300.000000,300.091142
0.3720,300.000000,300.018496
0.3730,300.000000,300.034486
0.3740,300.000000,299.993308
0.3750,300.000000,300.113847
0.3760,300.000000,300.021107
0.3770,300.000000,300.022377
0.3780,300.000000,300.121176
0.3790,300.000000,299.976127
0.3800,300.000000,300.150580
0.3810,300.000000,300.068981
0.3820,300.000000,300.130655
0.3830,300.000000,300.110461
0.3840,300.000000,299.990034
0.3850,300.000000,300.122124
0.3860,300.000000,300.034352
0.3870,300.000000,300.072936
0.3880,300.000000,300.165757
0.3890,300.000000,300.047386
0.3900,300.000000,300.125414
0.3910,300.000000,300.015235
0.3920,300.000000,300.131652
0.3930,300.000000,300.047853
0.3940,300.000000,300.073112
0.3950,300.000000,300.045475
0.3960,300.000000,300.052566
0.3970,300.000000,299.986625
0.3980,300.000000,300.033421
0.3990,300.000000,300.028485
0.4000,300.000000,300.005606
0.4010,300.000000,300.081260
0.4020,300.000000,300.153239
0.4030,300.000000,300.043102
0.4040,300.000000,300.174373
0.4050,300.000000,300.084854
0.4060,300.000000,300.068324
0.4070,300.000000,300.074845
0.4080,300.000000,300.196386
0.4090,300.000000,300.097327
0.4100,300.000000,300.091393
0.4110,300.000000,300.097189
0.4120,300.000000,299.995233
0.4130,300.000000,300.112018
0.4140,300.000000,300.012719
0.4150,300.000000,300.005860
0.4160,300.000000,300.031175
0.4170,300.000000,300.045417
0.4180,300.000000,300.062159
0.4190,300.000000,300.052489
0.4200,300.000000,300.046614
0.4210,300.000000,300.047650
0.4220,300.000000,300.087988
0.4230,300.000000,300.002521
0.4240,300.000000,300.095056
0.4250,300.000000,300.158499
0.4260,300.000000,300.109502
0.4270,300.000000,300.128406
0.4280,300.000000,300.156082
0.4290,300.000000,300.112975
0.4300,300.000000,300.046650
0.4310,300.000000,300.044778
0.4320,300.000000,300.069861
0.4330,300.000000,299.998299
0.4340,300.000000,300.183563
0.4350,300.000000,300.056678
0.4360,300.000000,300.132489
0.4370,300.000000,300.052310
0.4380,300.000000,300.068633
0.4390,300.000000,300.068582
0.4400,300.000000,300.140968
0.4410,300.000000,300.207787
0.4420,300.000000,300.016149
0.4430,300.000000,300.081623
0.4440,300.000000,300.118004
0.4450,300.000000,300.010628
0.4460,300.000000,300.065640
0.4470,300.000000,300.115567
0.4480,300.000000,300.065428
0.4490,300.000000,300.085877
0.4500,300.000000,300.103674
0.4510,300.000000,300.046533
0.4520,300.000000,300.019327
0.4530,300.000000,300.013596
0.4540,300.000000,299.948177
0.4550,300.000000,300.086381
0.4560,300.000000,300.052360
0.4570,300.000000,300.124029
0.4580,300.000000,300.100326
0.4590,300.000000,300.077663
0.4600,300.000000,300.098014
0.4610,300.000000,299.999894
0.4620,300.000000,300.110166
0.4630,300.000000,300.086363
0.4640,300.000000,300.063800
0.4650,300.000000,300.079598
0.4660,300.000000,300.133211
0.4670,300.000000,300.068877
0.4680,300.000000,300.080967
0.4690,300.000000,300.116240
0.4700,300.000000,300.068822
0.4710,300.000000,300.084448
0.4720,300.000000,300.064856
0.4730,300.000000,300.121094
0.4740,300.000000,300.071706
0.4750,300.000000,299.980356
0.4760,300.000000,300.103255
0.4770,300.000000,300.033964
0.4780,300.000000,300.045251
0.4790,300.000000,300.065960
0.4800,300.000000,300.193166
0.4810,300.000000,300.115544
0.4820,300.000000,300.191086
0.4830,300.000000,300.102611
0.4840,300.000000,300.139305
0.4850,300.000000,300.193373
0.4860,300.000000,300.143925
0.4870,300.000000,300.120825
0.4880,300.000000,300.027454
0.4890,300.000000,300.039784
0.4900,300.000000,300.099343
0.4910,300.000000,300.129016
0.4920,300.000000,300.066197
0.4930,300.000000,300.102416
0.4940,300.000000,300.023719
0.4950,300.000000,300.033364
0.4960,300.000000,300.090294
0.4970,300.000000,300.072158
0.4980,300.000000,300.054812
0.4990,300.000000,300.052873
0.5000,300.000000,300.010827
0.5010,300.000000,300.090996
0.5020,300.000000,300.024998
0.5030,300.000000,300.087017
0.5040,300.000000,300.097012
0.5050,300.000000,300.178021
0.5060,300.000000,300.053110
0.5070,300.000000,300.126961
0.5080,300.000000,300.107372
0.5090,300.000000,300.040504
0.5100,300.000000,300.090367
0.5110,300.000000,300.015017
0.5120,300.000000,300.078827
0.5130,300.000000,300.060593
0.5140,300.000000,300.113147
0.5150,300.000000,300.032214
0.5160,300.000000,299.957925
0.5170,300.000000,300.043120
0.5180,300.000000,300.107682
0.5190,300.000000,300.089650
0.5200,300.000000,300.059949
0.5210,300.000000,300.155430
0.5220,300.000000,300.086639
0.5230,300.000000,300.144395
0.5240,300.000000,300.109363
0.5250,300.000000,300.142908
0.5260,300.000000,300.146887
0.5270,300.000000,300.172731
0.5280,300.000000,300.062395
0.5290,300.000000,300.124537
0.5300,300.000000,300.028386
0.5310,300.000000,300.111878
0.5320,300.000000,299.994118
0.5330,300.000000,300.170507
0.5340,300.000000,300.088122
0.5350,300.000000,300.081893
0.5360,300.000000,299.989484
0.5370,300.000000,300.125293
0.5380,300.000000,300.141553
0.5390,300.000000,300.073534
0.5400,300.000000,300.069483
0.5410,300.000000,300.078790
0.5420,300.000000,300.189652
0.5430,300.000000,300.102952
0.5440,300.000000,300.119085
0.5450,300.000000,300.159441
0.5460,300.000000,299.989148
0.5470,300.000000,300.104282
0.5480,300.000000,300.089978
0.5490,300.000000,300.106219
0.5500,300.000000,300.132933
0.5510,300.000000,300.135249
0.5520,300.000000,300.069310
0.5530,300.000000,300.069541
0.5540,300.000000,300.075304
0.5550,300.000000,300.111110
0.5560,300.000000,300.131735
0.5570,300.000000,300.007050
0.5580,300.000000,300.100626
0.5590,300.000000,300.077572
0.5600,300.000000,300.196315
0.5610,300.000000,300.045076
0.5620,300.000000,300.047888
0.5630,300.000000,300.080753
0.5640,300.000000,300.143064
0.5650,300.000000,300.144702
0.5660,300.000000,300.086276
0.5670,300.000000,300.161774
0.5680,300.000000,300.084889
0.5690,300.000000,300.143780
0.5700,300.000000,300.025489
0.5710,300.000000,300.040863
0.5720,300.000000,300.062890
0.5730,300.000000,300.076299
0.5740,300.000000,300.034688
0.5750,300.000000,300.033041
0.5760,300.000000,300.099432
0.5770,300.000000,300.120739
0.5780,300.000000,300.045539
0.5790,300.000000,300.022989
0.5800,300.000000,300.101240
0.5810,300.000000,300.125906
0.5820,300.000000,300.055906
0.5830,300.000000,300.196657
0.5840,300.000000,300.072011
0.5850,300.000000,300.103770
0.5860,300.000000,300.103705
0.5870,300.000000,300.072771
0.5880,300.000000,300.199868
0.5890,300.000000,300.056987
0.5900,300.000000,300.184448
0.5910,300.000000,300.076520
0.5920,300.000000,300.071153
0.5930,300.000000,300.049364
0.5940,300.000000,300.113161
0.5950,300.000000,300.177383
0.5960,300.000000,300.051105
0.5970,300.000000,300.067188
0.5980,300.000000,300.159961
0.5990,300.000000,300.036640
0.6000,300.000000,300.059756
0.6010,300.000000,300.173598
0.6020,300.000000,300.131905
0.6030,300.000000,300.072114
0.6040,300.000000,300.149412
0.6050,300.000000,300.042378
0.6060,300.000000,300.172818
0.6070,300.000000,300.017466
0.6080,300.000000,300.060437
0.6090,300.000000,300.124807
0.6100,300.000000,300.036902
0.6110,300.000000,300.094477
0.6120,300.000000,300.116804
0.6130,300.000000,300.047247
0.6140,300.000000,300.075508
0.6150,300.000000,300.122513
0.6160,300.000000,300.104113
0.6170,300.000000,300.160552
0.6180,300.000000,300.047211
0.6190,300.000000,300.045077
0.6200,300.000000,300.166983
0.6210,300.000000,300.126466
0.6220,300.000000,300.100557
0.6230,300.000000,300.088496
0.6240,300.000000,300.161363
0.6250,300.000000,300.102434
0.6260,300.000000,300.159843
0.6270,300.000000,300.181494
0.6280,300.000000,300.119043
0.6290,300.000000,300.040511
0.6300,300.000000,300.130746
0.6310,300.000000,300.151619
0.6320,300.000000,300.150790
0.6330,300.000000,300.094720
0.6340,300.000000,299.997953
0.6350,300.000000,300.060173
0.6360,300.000000,300.059141
0.6370,300.000000,300.129606
0.6380,300.000000,300.112082
0.6390,300.000000,300.142110
0.6400,300.000000,300.069420
0.6410,300.000000,300.120376
0.6420,300.000000,300.000717
0.6430,300.000000,300.099495
0.6440,300.000000,300.048728
0.6450,300.000000,300.210945
0.6460,300.000000,300.146490
0.6470,300.000000,300.141703
0.6480,300.000000,300.054833
0.6490,300.000000,300.104164
0.6500,300.000000,300.137561
0.6510,300.000000,300.054899
0.6520,300.000000,300.070160
0.6530,300.000000,300.144003
0.6540,300.000000,300.032350
0.6550,300.000000,300.063499
0.6560,300.000000,300.045285
0.6570,300.000000,300.106072
0.6580,300.000000,300.132414
0.6590,300.000000,300.179646
0.6600,300.000000,300.125409
0.6610,300.000000,300.174283
0.6620,300.000000,300.135939
0.6630,300.000000,300.053784
0.6640,300.000000,300.127061
0.6650,300.000000,300.128912
0.6660,300.000000,300.178578
0.6670,300.000000,300.117835
0.6680,300.000000,300.099660
0.6690,300.000000,300.070179
0.6700,300.000000,300.093619
0.6710,300.000000,300.096145
0.6720,300.000000,300.124950
0.6730,300.000000,300.050042
0.6740,300.000000,300.205095
0.6750,300.000000,300.041989
0.6760,300.000000,300.024336
0.6770,300.000000,300.116728
0.6780,300.000000,300.031837
0.6790,300.000000,300.102713
0.6800,300.000000,300.073087
0.6810,300.000000,300.146619
0.6820,300.000000,300.127426
0.6830,300.000000,300.181318
0.6840,300.000000,300.148333
0.6850,300.000000,300.130609
0.6860,300.000000,300.137577
0.6870,300.000000,300.076171
0.6880,300.000000,300.085315
0.6890,300.000000,300.125771
0.6900,300.000000,300.138461
0.6910,300.000000,300.086381
0.6920,300.000000,300.086539
0.6930,300.000000,300.073144
0.6940,300.000000,300.108926
0.6950,300.000000,300.089420
0.6960,300.000000,300.121256
0.6970,300.000000,300.062364
0.6980,300.000000,300.095051
0.6990,300.000000,300.178986
0.7000,300.000000,300.211553
0.7010,300.000000,300.104217
0.7020,300.000000,300.187458
0.7030,300.000000,300.189584
0.7040,300.000000,300.170121
0.7050,300.000000,300.041390
0.7060,300.000000,300.058327
0.7070,300.000000,300.101256
0.7080,300.000000,300.097281
0.7090,300.000000,300.071114
0.7100,300.000000,300.138491
0.7110,300.000000,300.135193
0.7120,300.000000,300.188693
0.7130,300.000000,300.064455
0.7140,300.000000,300.059499
0.7150,300.000000,300.100509
0.7160,300.000000,300.027837
0.7170,300.000000,300.188656
0.7180,300.000000,300.081807
0.7190,300.000000,300.101388
0.7200,300.000000,300.118436
0.7210,300.000000,300.110513
0.7220,300.000000,300.109795
0.7230,300.000000,300.245846
0.7240,300.000000,300.135346
0.7250,300.000000,300.156208
0.7260,300.000000,300.106513
0.7270,300.000000,300.159239
0.7280,300.000000,300.125693
0.7290,300.000000,300.131105
0.7300,300.000000,300.136431
0.7310,300.000000,300.150594
0.7320,300.000000,300.135963
0.7330,300.000000,300.095490
0.7340,300.000000,300.094187
0.7350,300.000000,300.037385
0.7360,300.000000,300.085330
0.7370,300.000000,300.102402
0.7380,300.000000,300.147356
0.7390,300.000000,299.988785
0.7400,300.000000,300.128915
0.7410,300.000000,300.081074
0.7420,300.000000,300.164209
0.7430,300.000000,300.196353
0.7440,300.000000,300.130416
0.7450,300.000000,300.205629
0.7460,300.000000,300.176403
0.7470,300.000000,300.137201
0.7480,300.000000,300.045756
0.7490,300.001832,300.141499
0.7500,300.002231,300.075134
0.7510,300.002705,299.967974
0.7520,300.003263,300.051009
0.7530,300.003916,300.169746
0.7540,300.004677,300.106792
0.7550,300.005558,300.161686
0.7560,300.006571,300.181137
0.7570,300.007730,300.120332
0.7580,300.009049,300.083442
0.7590,300.010540,300.066711
0.7600,300.012215,300.124239
0.7610,300.014086,300.090919
0.7620,300.016162,300.086607
0.7630,300.018452,300.117773
0.7640,300.020961,300.142106
0.7650,300.023693,300.147268
0.7660,300.026647,300.156877
0.7670,300.029820,300.183039
0.7680,300.033204,300.151758
0.7690,300.036788,300.196593
0.7700,300.040555,300.192252
0.7710,300.044486,300.204366
0.7720,300.048554,300.147103
0.7730,300.052729,300.090813
0.7740,300.056978,300.142267
0.7750,300.061263,300.109268
0.7760,300.065541,300.202865
0.7770,300.069768,300.096273
0.7780,300.073897,300.195835
0.7790,300.077880,300.198516
0.7800,300.081669,300.235142
0.7810,300.085214,300.221923
0.7820,300.088471,300.214851
0.7830,300.091393,300.169972
0.7840,300.093941,300.315397
0.7850,300.096079,300.230714
0.7860,300.097775,300.216494
0.7870,300.099005,300.238311
0.7880,300.099750,300.285394
0.7890,300.100000,300.211127
0.7900,300.099750,300.274889
0.7910,300.099005,300.220774
0.7920,300.097775,300.240499
0.7930,300.096079,300.210595
0.7940,300.093941,300.226498
0.7950,300.091393,300.233234
0.7960,300.088471,300.209141
0.7970,300.085214,300.266929
0.7980,300.081669,300.182315
0.7990,300.077880,300.249181
0.8000,300.073897,300.161176
0.8010,300.069768,300.214676
0.8020,300.065541,300.154387
0.8030,300.061263,300.155393
0.8040,300.056978,300.260378
0.8050,300.052729,300.295865
0.8060,300.048554,300.178307
0.8070,300.044486,300.129221
0.8080,300.040555,300.170705
0.8090,300.036788,300.123447
0.8100,300.033204,300.217184
0.8110,300.029820,300.172947
0.8120,300.026647,300.163239
0.8130,300.023693,300.121108
0.8140,300.020961,300.085394
0.8150,300.018452,300.170708
0.8160,300.016162,300.111167
0.8170,300.014086,300.065687
0.8180,300.012215,300.197704
0.8190,300.010540,300.247642
0.8200,300.009049,300.136715
0.8210,300.007730,300.151597
0.8220,300.006571,300.228875
0.8230,300.005558,300.126872
0.8240,300.004677,300.200029
0.8250,300.003916,300.115459
0.8260,300.003263,300.166543
0.8270,300.002705,300.090922
0.8280,300.002231,300.121552
0.8290,300.000000,300.043698
0.8300,300.000000,300.145062
0.8310,300.000000,300.134364
0.8320,300.000000,300.057838
0.8330,300.000000,300.214281
0.8340,300.000000,300.105555
0.8350,300.000000,300.093796
0.8360,300.000000,300.052979
0.8370,300.000000,300.143829
0.8380,300.000000,300.064404
0.8390,300.000000,300.153146
0.8400,300.000000,300.077361
0.8410,300.000000,300.149128
0.8420,300.000000,300.123338
0.8430,300.000000,300.176739
0.8440,300.000000,300.075381
0.8450,300.000000,300.164306
0.8460,300.000000,300.091514
0.8470,300.000000,300.105442
0.8480,300.000000,300.162411
0.8490,300.000000,300.130234
0.8500,299.979209,300.119666
0.8510,299.959326,300.112589
0.8520,299.941221,300.059667
0.8530,299.925686,300.024611
0.8540,299.913397,299.966374
0.8550,299.904894,300.116800
0.8560,299.900548,300.031055
0.8570,299.918863,300.024934
0.8580,299.939591,300.034105
0.8590,299.975574,300.102106
0.8600,300.031085,300.153234
0.8610,300.110235,300.265312
0.8620,300.215702,300.321293
0.8630,300.347088,300.569837
0.8640,300.499352,300.675507
0.8650,300.641180,300.693525
0.8660,300.778801,300.934977
0.8670,300.894839,301.074110
0.8680,300.972604,301.041247
0.8690,301.000000,301.184187
0.8700,300.972604,301.127110
0.8710,300.894839,300.946277
0.8720,300.778801,300.881514
0.8730,300.641180,300.691032
0.8740,300.499352,300.645392
0.8750,300.367879,300.420270
0.8760,300.256376,300.313965
0.8770,300.169013,300.280333
0.8780,300.105399,300.320625
0.8790,300.062177,300.240552
0.8800,300.034697,300.108793
0.8810,300.000000,300.068561
0.8820,300.000000,300.105853
0.8830,300.000000,300.069803
0.8840,300.000000,300.182149
0.8850,300.000000,300.176765
0.8860,300.000000,300.188594
0.8870,300.000000,300.142567
0.8880,300.000000,300.141757
0.8890,299.850000,299.926938
0.8900,299.870894,300.008742
0.8910,299.888877,300.070059
0.8920,299.904356,299.995290
0.8930,299.917678,300.046087
0.8940,299.929145,300.037824
0.8950,299.939015,300.016710
0.8960,299.947509,300.078648
0.8970,299.954821,300.153972
0.8980,299.961114,300.142631
0.8990,299.966530,300.042846
0.9000,299.971193,300.101752
0.9010,299.975205,300.142618
0.9020,299.978659,300.119283
0.9030,299.981632,300.058332
0.9040,299.984190,300.090198
0.9050,299.986392,300.162630
0.9060,299.988288,300.228652
0.9070,299.989919,300.098703
0.9080,299.991323,300.080465
0.9090,300.000000,300.187657
0.9100,300.000000,300.136831
0.9110,300.000000,300.099532
0.9120,300.000000,300.103791
0.9130,300.000000,300.101991
0.9140,300.000000,300.143840
0.9150,300.000000,300.116730
0.9160,300.000000,300.029855
0.9170,300.000000,300.102900
0.9180,300.000000,300.205522
0.9190,300.000000,300.174820
0.9200,300.000000,300.188284
0.9210,300.000000,300.090035
0.9220,300.000000,300.155494
0.9230,300.000000,300.189367
0.9240,300.000000,300.148491
0.9250,300.000000,300.204960
0.9260,300.000000,300.102044
0.9270,300.000000,300.152732
0.9280,300.000000,300.108018
0.9290,300.000000,300.206002
0.9300,300.000000,300.123270
0.9310,300.000000,300.109357
0.9320,300.000000,300.057539
0.9330,300.000000,300.151385
0.9340,300.000000,300.129268
0.9350,300.000000,300.105325
0.9360,300.000000,300.137414
0.9370,300.000000,300.163712
0.9380,300.000000,300.124703
0.9390,300.000000,300.142449
0.9400,300.000000,300.153527
0.9410,300.000000,300.044606
0.9420,300.000000,300.161851
0.9430,300.000000,300.060884
0.9440,300.000000,300.146000
0.9450,300.000000,300.174813
0.9460,300.000000,300.054377
0.9470,300.000000,300.145490
0.9480,300.000000,300.120835
0.9490,300.005495,300.126045
0.9500,300.006069,300.171744
0.9510,300.006694,300.222409
0.9520,300.007375,300.159298
0.9530,300.008116,300.120148
0.9540,300.008919,300.049566
0.9550,300.009789,300.185201
0.9560,300.010731,300.110612
0.9570,300.011749,300.038358
0.9580,300.012848,300.070431
0.9590,300.014031,300.071564
0.9600,300.015305,300.086809
0.9610,300.016673,300.200799
0.9620,300.018141,300.167093
0.9630,300.019713,300.190257
0.9640,300.021395,300.027712
0.9650,300.023191,300.208961
0.9660,300.025107,300.203038
0.9670,300.027147,300.081219
0.9680,300.029317,300.106317
0.9690,300.031620,300.222225
0.9700,300.034061,300.131809
0.9710,300.036645,300.208527
0.9720,300.039376,300.155752
0.9730,300.042258,300.128092
0.9740,300.045293,300.146966
0.9750,300.048486,300.056646
0.9760,300.051840,300.179612
0.9770,300.055356,300.106997
0.9780,300.059037,300.083614
0.9790,300.062883,300.110475
0.9800,300.066897,300.149334
0.9810,300.071078,300.234427
0.9820,300.075426,300.175173
0.9830,300.079940,300.261715
0.9840,300.084619,300.275906
0.9850,300.089459,300.285728
0.9860,300.094458,300.333421
0.9870,300.099612,300.267438
0.9880,300.104916,300.273866
0.9890,300.110364,300.212541
0.9900,300.115950,300.128500
0.9910,300.121666,300.259848
0.9920,300.127505,300.175578
0.9930,300.133457,300.175634
0.9940,300.139513,300.190554
0.9950,300.145661,300.286402
0.9960,300.151890,300.309530
0.9970,300.158188,300.278428
0.9980,300.164541,300.225775
0.9990,300.170935,300.279027
1.0000,300.177356,300.376344
1.0010,300.183788,300.305185
1.0020,300.190215,300.305385
1.0030,300.196622,300.408953
1.0040,300.202990,300.464607
1.0050,300.209303,300.341469
1.0060,300.215542,300.281711
1.0070,300.221691,300.370374
1.0080,300.227729,300.351275
1.0090,300.233640,300.442505
1.0100,300.239405,300.304038
1.0110,300.245006,300.321658
1.0120,300.250424,300.348916
1.0130,300.255643,300.402912
1.0140,300.260645,300.317510
1.0150,300.265412,300.427872
1.0160,300.269929,300.355188
1.0170,300.274179,300.311169
1.0180,300.278149,300.352954
1.0190,300.281824,300.336208
1.0200,300.285191,300.349537
1.0210,300.288237,300.519712
1.0220,300.290952,300.438591
1.0230,300.293325,300.491605
1.0240,300.295349,300.422822
1.0250,300.297015,300.476512
1.0260,300.298317,300.406105
1.0270,300.299251,300.530108
1.0280,300.299813,300.428009
1.0290,300.300000,300.393035
1.0300,300.299813,300.365137
1.0310,300.299251,300.364927
1.0320,300.298317,300.352048
1.0330,300.297015,300.496343
1.0340,300.295349,300.394673
1.0350,300.293325,300.387993
1.0360,300.290952,300.565789
1.0370,300.288237,300.477598
1.0380,300.285191,300.340065
1.0390,300.281824,300.472254
1.0400,300.278149,300.389627
1.0410,300.274179,300.403195
1.0420,300.269929,300.381401
1.0430,300.265412,300.403413
1.0440,300.260645,300.378881
1.0450,300.255643,300.388072
1.0460,300.250424,300.377907
1.0470,300.245006,300.414073
1.0480,300.239405,300.405736
1.0490,300.233640,300.376067
1.0500,300.227729,300.431280
1.0510,300.221691,300.398366
1.0520,300.215542,300.399176
1.0530,300.209303,300.285445
1.0540,300.202990,300.255637
1.0550,300.196622,300.320118
1.0560,300.190215,300.321520
1.0570,300.183788,300.247255
1.0580,300.177356,300.311767
1.0590,300.170935,300.208318
1.0600,300.164541,300.277067
1.0610,300.158188,300.228903
1.0620,300.151890,300.314068
1.0630,300.145661,300.331019
1.0640,300.139513,300.183958
1.0650,300.133457,300.128096
1.0660,300.127505,300.355399
1.0670,300.121666,300.208915
1.0680,300.115950,300.229917
1.0690,300.110364,300.193655
1.0700,300.104916,300.292794
1.0710,300.099612,300.270234
1.0720,300.094458,300.195246
1.0730,300.089459,300.237014
1.0740,300.084619,300.209359
1.0750,300.079940,300.204950
1.0760,300.075426,300.217615
1.0770,300.071078,300.184238
1.0780,300.066897,300.159064
1.0790,300.062883,300.231044
1.0800,300.059037,300.196839
1.0810,300.055356,300.190705
1.0820,300.051840,300.198958
1.0830,300.048486,300.163389
1.0840,300.045293,300.128180
1.0850,300.042258,300.160424
1.0860,300.039376,300.199328
1.0870,300.036645,300.178312
1.0880,300.034061,300.121052
1.0890,300.031620,300.097126
1.0900,300.029317,300.098310
1.0910,300.027147,300.142088
1.0920,300.025107,300.223081
1.0930,300.023191,300.076567
1.0940,300.021395,300.167899
1.0950,300.019713,300.059744
1.0960,300.018141,300.167394
1.0970,300.016673,300.096184
1.0980,300.015305,300.128966
1.0990,300.014031,300.172898
1.1000,300.012848,300.147032
1.1010,300.011749,300.159932
1.1020,300.010731,300.157339
1.1030,300.009789,300.248377
1.1040,300.008919,300.093958
1.1050,300.008116,300.150926
1.1060,300.007375,300.156791
1.1070,300.006694,300.108322
1.1080,300.006069,300.187662
1.1090,300.000000,300.114284
1.1100,300.000000,300.170585
1.1110,300.000000,300.127957
1.1120,300.000000,300.099882
1.1130,300.000000,300.199850
1.1140,300.000000,300.019274
1.1150,300.000000,300.140889
1.1160,300.000000,300.180850
1.1170,300.000000,300.039188
1.1180,300.000000,300.116740
1.1190,300.000000,300.147410
1.1200,300.000000,300.086604
1.1210,300.000000,300.164268
1.1220,300.000000,300.212889
1.1230,300.000000,300.182755
1.1240,300.000000,300.242871
1.1250,300.000000,300.097048
1.1260,300.000000,300.137560
1.1270,300.000000,300.069796
1.1280,300.000000,300.118028
1.1290,300.000000,300.161628
1.1300,300.000000,300.143036
1.1310,300.000000,300.096119
1.1320,300.000000,300.111779
1.1330,300.000000,300.014658
1.1340,300.000000,300.112728
1.1350,300.000000,300.187581
1.1360,300.000000,300.033603
1.1370,300.000000,300.112392
1.1380,300.000000,300.186404
1.1390,300.000000,300.072510
1.1400,300.000000,300.119880
1.1410,300.000000,300.194250
1.1420,300.000000,300.271451
1.1430,300.000000,300.159085
1.1440,300.000000,300.166093
1.1450,300.000000,300.091190
1.1460,300.000000,300.167000
1.1470,300.000000,300.130158
1.1480,300.000000,300.158396
1.1490,300.000000,300.160053
1.1500,300.000000,300.118265
1.1510,300.000000,300.188385
1.1520,300.000000,300.145326
1.1530,300.000000,300.077384
1.1540,300.000000,300.049099
1.1550,300.000000,300.182176
1.1560,300.000000,300.166323
1.1570,300.000000,300.127474
1.1580,300.000000,300.052974
1.1590,300.000000,300.108496
1.1600,300.000000,300.155725
1.1610,300.000000,300.089489
1.1620,300.000000,300.235552
1.1630,300.000000,300.085524
1.1640,300.000000,300.089710
1.1650,300.000000,300.160740
1.1660,300.000000,300.211610
1.1670,300.000000,300.019134
1.1680,300.000000,300.099027
1.1690,300.000000,299.998966
1.1700,300.000000,300.194994
1.1710,300.000000,300.081231
1.1720,300.000000,300.200932
1.1730,300.000000,300.027707
1.1740,300.000000,300.057035
1.1750,300.000000,300.090969
1.1760,300.000000,300.133136
1.1770,300.000000,300.115762
1.1780,300.000000,300.084996
1.1790,300.000000,300.000825
1.1800,300.000000,300.115328
1.1810,300.000000,300.125523
1.1820,300.000000,300.116530
1.1830,300.000000,300.212280
1.1840,300.000000,300.135115
1.1850,300.000000,300.221578
1.1860,300.000000,300.173467
1.1870,300.000000,300.173008
1.1880,300.000000,300.183701
1.1890,300.000000,300.153585
1.1900,300.000000,300.109510
1.1910,300.000000,300.147101
1.1920,300.000000,300.160782
1.1930,300.000000,300.138498
1.1940,300.000000,300.036001
1.1950,300.000000,300.149591
1.1960,300.000000,300.147178
1.1970,300.000000,300.155137
1.1980,300.000000,300.101535
1.1990,300.000000,300.085752
1.2000,300.000000,300.127041
1.2010,300.000000,300.182125
1.2020,300.000000,300.068391
1.2030,300.000000,300.146804
1.2040,300.000000,300.048377
1.2050,300.000000,300.078193
1.2060,300.000000,300.202252
1.2070,300.000000,300.158298
1.2080,300.000000,300.084500
1.2090,300.000000,300.167027
1.2100,300.000000,300.098062
1.2110,300.000000,300.143513
1.2120,300.000000,300.138914
1.2130,300.000000,300.146087
1.2140,300.000000,300.154846
1.2150,300.000000,300.098710
1.2160,300.000000,300.098203
1.2170,300.000000,300.179636
1.2180,300.000000,300.072994
1.2190,300.000000,300.148050
1.2200,300.000000,300.095424
1.2210,300.000000,300.137271
1.2220,300.000000,300.228863
1.2230,300.000000,300.083058
1.2240,300.000000,300.075779
1.2250,300.000000,300.218971
1.2260,300.000000,300.159494
1.2270,300.000000,300.109352
1.2280,300.000000,300.133718
1.2290,300.000000,300.124511
1.2300,300.000000,300.114168
1.2310,300.000000,300.189825
1.2320,300.000000,300.070998
1.2330,300.000000,300.100993
1.2340,300.000000,300.055375
1.2350,300.000000,300.097689
1.2360,300.000000,300.076415
1.2370,300.000000,300.127674
1.2380,300.000000,300.109086
1.2390,300.000000,300.151054
1.2400,300.000000,300.195169
1.2410,300.000000,300.075493
1.2420,300.000000,300.146963
1.2430,300.000000,300.064911
1.2440,300.000000,300.149636
1.2450,300.000000,300.175429
1.2460,300.000000,300.130478
1.2470,300.000000,300.163639
1.2480,300.000000,300.155463
1.2490,300.000000,300.163083
1.2500,300.000000,300.067626
1.2510,300.000000,300.175849
1.2520,300.000000,300.099906
1.2530,300.000000,300.028812
1.2540,300.000000,300.062675
1.2550,300.000000,300.044658
1.2560,300.000000,300.081727
1.2570,300.000000,300.068345
1.2580,300.000000,300.039196
1.2590,300.000000,300.037667
1.2600,300.000000,300.126246
1.2610,300.000000,300.204665
1.2620,300.000000,300.145848
1.2630,300.000000,300.113761
1.2640,300.000000,300.093328
1.2650,300.000000,300.083335
1.2660,300.000000,300.133108
1.2670,300.000000,300.133447
1.2680,300.000000,300.166500
1.2690,300.000000,300.115458
1.2700,300.000000,300.196522
1.2710,300.000000,300.056159
1.2720,300.000000,300.059047
1.2730,300.000000,300.131324
1.2740,300.000000,300.083472
1.2750,300.000000,300.078935
1.2760,300.000000,300.068740
1.2770,300.000000,300.041392
1.2780,300.000000,300.009913
1.2790,300.000000,300.087016
1.2800,300.000000,300.069932
1.2810,300.000000,300.147670
1.2820,300.000000,300.135638
1.2830,300.000000,300.110401
1.2840,300.000000,300.120006
1.2850,300.000000,300.201149
1.2860,300.000000,300.104561
1.2870,300.000000,300.189589
1.2880,300.000000,300.205855
1.2890,300.000000,300.147160
1.2900,300.000000,300.107273
1.2910,300.000000,300.110245
1.2920,300.000000,300.153010
1.2930,300.000000,300.092940
1.2940,300.000000,300.226738
1.2950,300.000000,300.066667
1.2960,300.000000,300.142031
1.2970,300.000000,300.156970
1.2980,300.000000,300.032194
1.2990,300.000000,300.130267
1.3000,300.000000,300.110667
1.3010,300.000000,300.116065
1.3020,300.000000,300.187601
1.3030,300.000000,300.131122
1.3040,300.000000,300.216696
1.3050,300.000000,300.082843
1.3060,300.000000,300.086334
1.3070,300.000000,300.126385
1.3080,300.000000,300.106206
1.3090,300.000000,300.090444
1.3100,300.000000,300.010674
1.3110,300.000000,300.171335
1.3120,300.000000,300.131920
1.3130,300.000000,300.134929
1.3140,300.000000,300.067658
1.3150,300.000000,300.132788
1.3160,300.000000,300.215018
1.3170,300.000000,300.138035
1.3180,300.000000,300.113668
1.3190,300.000000,300.124069
1.3200,300.000000,300.186740
1.3210,300.000000,300.073773
1.3220,300.000000,300.131247
1.3230,300.000000,300.142819
1.3240,300.000000,300.162615
1.3250,300.000000,300.108364
1.3260,300.000000,300.044332
1.3270,300.000000,300.143912
1.3280,300.000000,300.254809
1.3290,300.000000,300.152237
1.3300,300.000000,300.066346
1.3310,300.000000,300.093680
1.3320,300.000000,300.099398
1.3330,300.000000,300.187314
1.3340,300.000000,300.098866
1.3350,300.000000,300.159266
1.3360,300.000000,300.115265
1.3370,300.000000,300.112217
1.3380,300.000000,300.062352
1.3390,300.000000,300.157856
1.3400,300.000000,300.097012
1.3410,300.000000,300.186604
1.3420,300.000000,300.137235
1.3430,300.000000,300.135527
1.3440,300.000000,300.105970
1.3450,300.000000,300.120511
1.3460,300.000000,300.119944
1.3470,300.000000,300.142284
1.3480,300.000000,300.214847
1.3490,300.000000,300.057762
1.3500,300.000000,300.130268
1.3510,300.000000,300.206229
1.3520,300.000000,300.052903
1.3530,300.000000,300.086611
1.3540,300.000000,300.147434
1.3550,300.000000,300.043067
1.3560,300.000000,300.180146
1.3570,300.000000,300.170028
1.3580,300.000000,300.124971
1.3590,300.000000,299.969216
1.3600,300.000000,300.099059
1.3610,300.000000,300.178864
1.3620,300.000000,300.116478
1.3630,300.000000,300.139652
1.3640,300.000000,300.243363
1.3650,300.000000,300.158920
1.3660,300.000000,300.153540
1.3670,300.000000,300.120113
1.3680,300.000000,300.213194
1.3690,300.000000,300.180317
1.3700,300.000000,300.098821
1.3710,300.000000,300.080265
1.3720,300.000000,300.069989
1.3730,300.000000,300.083266
1.3740,300.000000,300.064591
1.3750,300.000000,300.108422
1.3760,300.000000,300.145749
1.3770,300.000000,300.066522
1.3780,300.000000,300.075259
1.3790,300.000000,300.085683
1.3800,300.000000,300.138587
1.3810,300.000000,300.077724
1.3820,300.000000,300.059478
1.3830,300.000000,300.125918
1.3840,300.000000,300.144665
1.3850,300.000000,300.135104
1.3860,300.000000,300.135279
1.3870,300.000000,300.179660
1.3880,300.000000,300.192204
1.3890,300.000000,300.124705
1.3900,300.000000,300.127655
1.3910,300.000000,300.207135
1.3920,300.000000,300.097036
1.3930,300.000000,300.084213
1.3940,300.000000,300.034848
1.3950,300.000000,300.135309
1.3960,300.000000,300.030132
1.3970,300.000000,300.073264
1.3980,300.000000,300.058620
1.3990,300.000000,300.050677
1.4000,300.000000,300.196580
1.4010,300.000000,300.133881
1.4020,300.000000,300.053044
1.4030,300.000000,300.152762
1.4040,300.000000,300.190100
1.4050,300.000000,300.164247
1.4060,300.000000,300.196243
1.4070,300.000000,300.164869
1.4080,300.000000,300.171562
1.4090,300.000000,300.121881
1.4100,300.000000,300.195697
1.4110,300.000000,300.154799
1.4120,300.000000,300.122486
1.4130,300.000000,300.061731
1.4140,300.000000,300.153842
1.4150,300.000000,300.159636
1.4160,300.000000,300.208316
1.4170,300.000000,300.101196
1.4180,300.000000,300.128327
1.4190,300.000000,300.132963
1.4200,300.000000,300.022367
1.4210,300.000000,300.168999
1.4220,300.000000,300.155403
1.4230,300.000000,300.113865
1.4240,300.000000,300.097805
1.4250,300.000000,300.082485
1.4260,300.000000,300.170211
1.4270,300.000000,300.101574
1.4280,300.000000,300.157109
1.4290,300.000000,300.121688
1.4300,300.000000,300.133271
1.4310,300.000000,300.178904
1.4320,300.000000,300.133706
1.4330,300.000000,300.124630
1.4340,300.000000,300.073156
1.4350,300.000000,300.124174
1.4360,300.000000,300.098478
1.4370,300.000000,300.037533
1.4380,300.000000,300.099073
1.4390,300.000000,300.173394
1.4400,300.000000,300.074276
1.4410,300.000000,300.142114
1.4420,300.000000,300.124922
1.4430,300.000000,300.135443
1.4440,300.000000,300.127352
1.4450,300.000000,300.151965
1.4460,300.000000,300.086372
1.4470,300.000000,300.162158
1.4480,300.000000,300.107789
1.4490,300.000000,300.133143
1.4500,300.000000,300.129668
1.4510,300.000000,300.124676
1.4520,300.000000,300.094435
1.4530,300.000000,300.038819
1.4540,300.000000,300.071246
1.4550,300.000000,300.079671
1.4560,300.000000,300.012151
1.4570,300.000000,300.074376
1.4580,300.000000,300.160823
1.4590,300.000000,300.059400
1.4600,300.000000,300.155203
1.4610,300.000000,300.095849
1.4620,300.000000,300.099492
1.4630,300.000000,300.123542
1.4640,300.000000,300.151462
1.4650,300.000000,300.114935
1.4660,300.000000,300.109470
1.4670,300.000000,300.201866
1.4680,300.000000,300.134557
1.4690,300.000000,300.052614
1.4700,300.000000,300.011033
1.4710,300.000000,300.182349
1.4720,300.000000,300.150689
1.4730,300.000000,300.108959
1.4740,300.000000,300.104333
1.4750,300.000000,300.095538
1.4760,300.000000,300.101810
1.4770,300.000000,300.110305
1.4780,300.000000,300.156253
1.4790,300.000000,300.156912
1.4800,300.000000,300.125525
1.4810,300.000000,300.132567
1.4820,300.000000,300.169357
1.4830,300.000000,300.160866
1.4840,300.000000,300.130107
1.4850,300.000000,299.995124
1.4860,300.000000,300.168945
1.4870,300.000000,300.187141
1.4880,300.000000,300.113782
1.4890,300.000000,300.065672
1.4900,300.000000,300.161792
1.4910,300.000000,300.156332
1.4920,300.000000,300.060278
1.4930,300.000000,300.122310
1.4940,300.000000,300.072860
1.4950,300.000000,300.111781
1.4960,300.000000,300.165266
1.4970,300.000000,300.121859
1.4980,300.000000,300.071444
1.4990,300.000000,300.081174
1.5000,300.000000,300.213250
1.5010,300.000000,300.184226
1.5020,300.000000,300.104026
1.5030,300.000000,300.124958
1.5040,300.000000,300.115791
1.5050,300.000000,300.143268
1.5060,300.000000,300.172366
1.5070,300.000000,300.155796
1.5080,300.000000,300.160513
1.5090,300.000000,300.084508
1.5100,300.000000,300.119390
1.5110,300.000000,300.149656
1.5120,300.000000,300.177466
1.5130,300.000000,299.989880
1.5140,300.000000,300.117363
1.5150,300.000000,300.153973
1.5160,300.000000,299.993487
1.5170,300.000000,300.165056
1.5180,300.000000,300.211553
1.5190,300.000000,300.115798
1.5200,300.000000,300.139765
1.5210,300.000000,300.070332
1.5220,300.000000,300.226657
1.5230,300.000000,300.142800
1.5240,300.000000,300.003477
1.5250,300.000000,300.180615
1.5260,300.001832,300.087739
1.5270,300.002231,300.105353
1.5280,300.002705,300.140996
1.5290,300.003263,300.122720
1.5300,300.003916,300.132452
1.5310,300.004677,300.132672
1.5320,300.005558,300.172838
1.5330,300.006571,300.034422
1.5340,300.007730,300.127100
1.5350,300.009049,300.108902
1.5360,300.010540,300.091641
1.5370,300.012215,300.044463
1.5380,300.014086,300.133432
1.5390,300.016162,300.073557
1.5400,300.018452,300.045197
1.5410,300.020961,300.128491
1.5420,300.023693,300.176033
1.5430,300.026647,300.117638
1.5440,300.029820,300.066895
1.5450,300.033204,300.162636
1.5460,300.036788,300.226403
1.5470,300.040555,300.131206
1.5480,300.044486,300.098305
1.5490,300.048554,300.085039
1.5500,300.052729,300.127382
1.5510,300.056978,300.162310
1.5520,300.061263,300.136109
1.5530,300.065541,300.172085
1.5540,300.069768,300.166107
1.5550,300.073897,300.213721
1.5560,300.077880,300.161830
1.5570,300.081669,300.206171
1.5580,300.085214,300.185161
1.5590,300.088471,300.200907
1.5600,300.091393,300.209406
1.5610,300.093941,300.158285
1.5620,300.096079,300.212919
1.5630,300.097775,300.191582
1.5640,300.099005,300.185488
1.5650,300.099750,300.248576
1.5660,300.100000,300.252625
1.5670,300.099750,300.193306
1.5680,300.099005,300.254412
1.5690,300.097775,300.190281
1.5700,300.096079,300.249496
1.5710,300.093941,300.305791
1.5720,300.091393,300.212043
1.5730,300.088471,300.175207
1.5740,300.085214,300.140145
1.5750,300.081669,300.180029
1.5760,300.077880,300.118109
1.5770,300.073897,300.153883
1.5780,300.069768,300.121191
1.5790,300.065541,300.209278
1.5800,300.061263,300.142549
1.5810,300.056978,300.169280
1.5820,300.052729,300.086019
1.5830,300.048554,300.155160
1.5840,300.044486,300.152480
1.5850,300.040555,300.122009
1.5860,300.036788,300.148394
1.5870,300.033204,300.032137
1.5880,300.029820,300.091012
1.5890,300.026647,300.056293
1.5900,300.023693,300.168658
1.5910,300.020961,300.120295
1.5920,300.018452,299.984813
1.5930,300.016162,300.156264
1.5940,300.014086,300.122960
1.5950,300.012215,300.093351
1.5960,300.010540,300.114981
1.5970,300.009049,300.092725
1.5980,300.007730,300.084518
1.5990,300.006571,300.110655
1.6000,300.005558,300.114515
1.6010,300.004677,300.076013
1.6020,300.003916,300.158754
1.6030,300.003263,300.085522
1.6040,300.002705,300.112286
1.6050,300.002231,300.170278
1.6060,300.000000,300.178804
1.6070,300.000000,300.168823
1.6080,300.000000,300.032420
1.6090,300.000000,300.102076
1.6100,300.000000,300.047192
1.6110,300.000000,300.046612
1.6120,300.000000,300.061247
1.6130,300.000000,300.074254
1.6140,300.000000,300.058007
1.6150,300.000000,299.952671
1.6160,300.000000,300.098440
1.6170,300.000000,300.083748
1.6180,300.000000,300.154329
1.6190,300.000000,300.093775
1.6200,300.000000,300.009819
1.6210,300.000000,300.042269
1.6220,300.000000,300.030876
1.6230,300.000000,300.106711
1.6240,300.000000,300.202201
1.6250,300.000000,300.148805
1.6260,300.000000,300.129798
1.6270,299.979209,300.044176
1.6280,299.959326,300.096045
1.6290,299.941221,300.036313
1.6300,299.925686,300.042354
1.6310,299.913397,300.036183
1.6320,299.904894,299.972952
1.6330,299.900548,300.001593
1.6340,299.918863,300.095200
1.6350,299.939591,300.085589
1.6360,299.975574,300.104838
1.6370,300.031085,300.236700
1.6380,300.110235,300.299026
1.6390,300.215702,300.388165
1.6400,300.347088,300.397405
1.6410,300.499352,300.548553
1.6420,300.641180,300.691917
1.6430,300.778801,300.939929
1.6440,300.894839,301.053699
1.6450,300.972604,301.117388
1.6460,301.000000,301.067843
1.6470,300.972604,301.138864
1.6480,300.894839,300.993516
1.6490,300.778801,300.875994
1.6500,300.641180,300.778526
1.6510,300.499352,300.586404
1.6520,300.367879,300.452879
1.6530,300.256376,300.270423
1.6540,300.169013,300.175421
1.6550,300.105399,300.237714
1.6560,300.062177,300.160263
1.6570,300.034697,300.073386
1.6580,300.000000,300.106463
1.6590,300.000000,300.095854
1.6600,300.000000,300.039535
1.6610,300.000000,300.101229
1.6620,300.000000,300.125701
1.6630,300.000000,300.032346
1.6640,300.000000,300.163731
1.6650,300.000000,300.130637
1.6660,299.850000,300.054208
1.6670,299.870894,300.050573
1.6680,299.888877,300.081169
1.6690,299.904356,299.975089
1.6700,299.917678,300.046965
1.6710,299.929145,300.026207
1.6720,299.939015,300.104043
1.6730,299.947509,300.099208
1.6740,299.954821,300.119274
1.6750,299.961114,300.028258
1.6760,299.966530,299.985192
1.6770,299.971193,300.009089
1.6780,299.975205,300.083210
1.6790,299.978659,300.010280
1.6800,299.981632,300.090885
1.6810,299.984190,300.078890
1.6820,299.986392,299.982626
1.6830,299.988288,300.115851
1.6840,299.989919,300.141296
1.6850,299.991323,300.169821
1.6860,300.000000,300.089939
1.6870,300.000000,300.061659
1.6880,300.000000,300.090233
1.6890,300.000000,300.043758
1.6900,300.000000,300.125187
1.6910,300.000000,300.097035
1.6920,300.000000,300.025933
1.6930,300.000000,300.060145
1.6940,300.000000,300.156419
1.6950,300.000000,300.074218
1.6960,300.000000,300.041923
1.6970,300.000000,300.054574
1.6980,300.000000,300.093992
1.6990,300.000000,300.181835
1.7000,300.000000,300.044306
1.7010,300.000000,300.174317
1.7020,300.000000,300.092942
1.7030,300.000000,300.177041
1.7040,300.000000,300.057658
1.7050,300.000000,300.193919
1.7060,300.000000,300.204290
1.7070,300.000000,300.205537
1.7080,300.000000,300.107595
1.7090,300.000000,300.102258
1.7100,300.000000,300.058896
1.7110,300.000000,300.040743
1.7120,300.000000,300.128869
1.7130,300.000000,300.080152
1.7140,300.000000,300.100438
1.7150,300.000000,300.096605
1.7160,300.000000,300.011565
1.7170,300.000000,300.018126
1.7180,300.000000,300.122600
1.7190,300.000000,300.110356
1.7200,300.000000,300.088888
1.7210,300.000000,300.120886
1.7220,300.000000,300.178895
1.7230,300.000000,300.156911
1.7240,300.000000,300.126642
1.7250,300.000000,300.136740
1.7260,300.005495,300.192489
1.7270,300.006069,300.095849
1.7280,300.006694,300.124034
1.7290,300.007375,300.106330
1.7300,300.008116,300.070214
1.7310,300.008919,300.086474
1.7320,300.009789,300.040841
1.7330,300.010731,300.141247
1.7340,300.011749,300.064391
1.7350,300.012848,300.096804
1.7360,300.014031,300.140596
1.7370,300.015305,300.161303
1.7380,300.016673,300.100952
1.7390,300.018141,300.100179
1.7400,300.019713,300.147829
1.7410,300.021395,300.140967
1.7420,300.023191,300.070371
1.7430,300.025107,300.216201
1.7440,300.027147,300.150537
1.7450,300.029317,300.182545
1.7460,300.031620,300.160646
1.7470,300.034061,300.168089
1.7480,300.036645,300.132231
1.7490,300.039376,300.172364
1.7500,300.042258,300.168018
1.7510,300.045293,300.173518
1.7520,300.048486,300.059990
1.7530,300.051840,300.066341
1.7540,300.055356,300.133950
1.7550,300.059037,300.110384
1.7560,300.062883,300.197000
1.7570,300.066897,300.098100
1.7580,300.071078,300.195001
1.7590,300.075426,300.076806
1.7600,300.079940,300.094894
1.7610,300.084619,300.180405
1.7620,300.089459,300.209554
1.7630,300.094458,300.233433
1.7640,300.099612,300.257889
1.7650,300.104916,300.231306
1.7660,300.110364,300.215395
1.7670,300.115950,300.182504
1.7680,300.121666,300.134941
1.7690,300.127505,300.257918
1.7700,300.133457,300.179172
1.7710,300.139513,300.230291
1.7720,300.145661,300.266918
1.7730,300.151890,300.375862
1.7740,300.158188,300.224862
1.7750,300.164541,300.178303
1.7760,300.170935,300.248813
1.7770,300.177356,300.159335
1.7780,300.183788,300.252769
1.7790,300.190215,300.274040
1.7800,300.196622,300.293181
1.7810,300.202990,300.358321
1.7820,300.209303,300.345454
1.7830,300.215542,300.285644
1.7840,300.221691,300.396455
1.7850,300.227729,300.399891
1.7860,300.233640,300.298607
1.7870,300.239405,300.261487
1.7880,300.245006,300.234441
1.7890,300.250424,300.375144
1.7900,300.255643,300.394471
1.7910,300.260645,300.321949
1.7920,300.265412,300.340127
1.7930,300.269929,300.368711
1.7940,300.274179,300.357826
1.7950,300.278149,300.364029
1.7960,300.281824,300.455697
1.7970,300.285191,300.348144
1.7980,300.288237,300.372775
1.7990,300.290952,300.343326
1.8000,300.293325,300.434977
1.8010,300.295349,300.464557
1.8020,300.297015,300.407193
1.8030,300.298317,300.420419
1.8040,300.299251,300.473658
1.8050,300.299813,300.386534
1.8060,300.300000,300.420867
1.8070,300.299813,300.321479
1.8080,300.299251,300.403727
1.8090,300.298317,300.380087
1.8100,300.297015,300.442857
1.8110,300.295349,300.366274
1.8120,300.293325,300.351377
1.8130,300.290952,300.440552
1.8140,300.288237,300.344571
1.8150,300.285191,300.382507
1.8160,300.281824,300.418991
1.8170,300.278149,300.317857
1.8180,300.274179,300.390549
1.8190,300.269929,300.311466
1.8200,300.265412,300.382635
1.8210,300.260645,300.394762
1.8220,300.255643,300.324414
1.8230,300.250424,300.237583
1.8240,300.245006,300.295454
1.8250,300.239405,300.351363
1.8260,300.233640,300.283457
1.8270,300.227729,300.307327
1.8280,300.221691,300.342881
1.8290,300.215542,300.291243
1.8300,300.209303,300.297008
1.8310,300.202990,300.247124
1.8320,300.196622,300.362413
1.8330,300.190215,300.221294
1.8340,300.183788,300.245585
1.8350,300.177356,300.267520
1.8360,300.170935,300.182686
1.8370,300.164541,300.232037
1.8380,300.158188,300.218811
1.8390,300.151890,300.267039
1.8400,300.145661,300.230191
1.8410,300.139513,300.198956
1.8420,300.133457,300.242462
1.8430,300.127505,300.282228
1.8440,300.121666,300.207981
1.8450,300.115950,300.221121
1.8460,300.110364,300.207405
1.8470,300.104916,300.222844
1.8480,300.099612,300.155219
1.8490,300.094458,300.275538
1.8500,300.089459,300.239324
1.8510,300.084619,300.142882
1.8520,300.079940,300.255323
1.8530,300.075426,300.018949
1.8540,300.071078,300.176605
1.8550,300.066897,300.312674
1.8560,300.062883,300.112551
1.8570,300.059037,300.168098
1.8580,300.055356,300.168847
1.8590,300.051840,300.115351
1.8600,300.048486,300.157311
1.8610,300.045293,300.217169
1.8620,300.042258,300.091510
1.8630,300.039376,300.161743
1.8640,300.036645,300.184247
1.8650,300.034061,300.100588
1.8660,300.031620,300.136992
1.8670,300.029317,300.151560
1.8680,300.027147,300.084762
1.8690,300.025107,300.185919
1.8700,300.023191,300.118048
1.8710,300.021395,300.061104
1.8720,300.019713,300.032135
1.8730,300.018141,300.069405
1.8740,300.016673,300.063028
1.8750,300.015305,300.096088
1.8760,300.014031,300.016257
1.8770,300.012848,300.045403
1.8780,300.011749,300.156243
1.8790,300.010731,300.007690
1.8800,300.009789,300.059744
1.8810,300.008919,300.034289
1.8820,300.008116,300.110445
1.8830,300.007375,300.138839
1.8840,300.006694,300.283429
1.8850,300.006069,300.154079
1.8860,300.000000,300.037341
1.8870,300.000000,300.123053
1.8880,300.000000,300.085002
1.8890,300.000000,300.061207
1.8900,300.000000,300.078528
1.8910,300.000000,300.115810
1.8920,300.000000,300.107160
1.8930,300.000000,299.993399
1.8940,300.000000,300.060109
1.8950,300.000000,300.007050
1.8960,300.000000,300.065813
1.8970,300.000000,300.038452
1.8980,300.000000,300.105754
1.8990,300.000000,300.056521
1.9000,300.000000,300.041318
1.9010,300.000000,300.085385
1.9020,300.000000,300.086869
1.9030,300.000000,300.084243
1.9040,300.000000,300.072592
1.9050,300.000000,299.972678
1.9060,300.000000,300.191884
1.9070,300.000000,300.024588
1.9080,300.000000,300.099264
1.9090,300.000000,300.100396
1.9100,300.000000,300.184150
1.9110,300.000000,300.184605
1.9120,300.000000,300.083654
1.9130,300.000000,300.007513
1.9140,300.000000,300.006117
1.9150,300.000000,300.023612
1.9160,300.000000,300.054138
1.9170,300.000000,300.035088
1.9180,300.000000,300.014154
1.9190,300.000000,300.072558
1.9200,300.000000,300.032069
1.9210,300.000000,300.149414
1.9220,300.000000,300.044023
1.9230,300.000000,300.055829
1.9240,300.000000,300.098398
1.9250,300.000000,300.028339
1.9260,300.000000,300.074006
1.9270,300.000000,300.014457
1.9280,300.000000,300.082111
1.9290,300.000000,300.038002
1.9300,300.000000,300.048391
1.9310,300.000000,300.073788
1.9320,300.000000,300.041100
1.9330,300.000000,300.093307
1.9340,300.000000,300.004219
1.9350,300.000000,300.028968
1.9360,300.000000,300.037225
1.9370,300.000000,300.096590
1.9380,300.000000,300.113300
1.9390,300.000000,300.017366
1.9400,300.000000,300.051888
1.9410,300.000000,299.981426
1.9420,300.000000,300.083563
1.9430,300.000000,300.090187
1.9440,300.000000,300.161487
1.9450,300.000000,300.082798
1.9460,300.000000,300.084380
1.9470,300.000000,300.065197
1.9480,300.000000,300.109410
1.9490,300.000000,300.090145
1.9500,300.000000,300.092509
1.9510,300.000000,300.171784
1.9520,300.000000,299.984615
1.9530,300.000000,299.917679
1.9540,300.000000,300.087187
1.9550,300.000000,300.048147
1.9560,300.000000,300.022673
1.9570,300.000000,300.104710
1.9580,300.000000,300.066909
1.9590,300.000000,300.043537
1.9600,300.000000,300.114604
1.9610,300.000000,300.113602
1.9620,300.000000,300.114046
1.9630,300.000000,300.022192
1.9640,300.000000,300.047434
1.9650,300.000000,300.104126
1.9660,300.000000,300.111943
1.9670,300.000000,300.155596
1.9680,300.000000,300.052085
1.9690,300.000000,300.075022
1.9700,300.000000,300.127441
1.9710,300.000000,300.055651
1.9720,300.000000,300.065194
1.9730,300.000000,300.050180
1.9740,300.000000,300.077932
1.9750,300.000000,300.073611
1.9760,300.000000,299.968888
1.9770,300.000000,300.084274
1.9780,300.000000,300.140136
1.9790,300.000000,299.992406
1.9800,300.000000,300.084826
1.9810,300.000000,300.102787
1.9820,300.000000,300.013358
1.9830,300.000000,300.045573
1.9840,300.000000,300.052345
1.9850,300.000000,300.098165
1.9860,300.000000,300.018000
1.9870,300.000000,300.048963
1.9880,300.000000,300.096917
1.9890,300.000000,300.116121
1.9900,300.000000,300.068318
1.9910,300.000000,300.007921
1.9920,300.000000,300.041136
1.9930,300.000000,300.060405
1.9940,300.000000,300.123438
1.9950,300.000000,300.067485
1.9960,300.000000,300.151421
1.9970,300.000000,300.091227
1.9980,300.000000,300.114920
1.9990,300.000000,300.027071
2.0000,300.000000,300.103766
2.0010,300.000000,300.080779
2.0020,300.000000,300.199723
2.0030,300.000000,300.064218
2.0040,300.000000,300.173349
2.0050,300.000000,300.171072
2.0060,300.000000,300.055416
2.0070,300.000000,300.096724
2.0080,300.000000,300.005022
2.0090,300.000000,300.161583
2.0100,300.000000,299.957287
2.0110,300.000000,299.977774
2.0120,300.000000,300.044973
2.0130,300.000000,300.001127
2.0140,300.000000,299.995334
2.0150,300.000000,300.027096
2.0160,300.000000,300.092885
2.0170,300.000000,300.097627
2.0180,300.000000,300.075014
2.0190,300.000000,300.082462
2.0200,300.000000,300.065559
2.0210,300.000000,300.121534
2.0220,300.000000,300.081358
2.0230,300.000000,300.040245
2.0240,300.000000,300.068580
2.0250,300.000000,300.095141
2.0260,300.000000,300.124868
2.0270,300.000000,300.095502
2.0280,300.000000,300.013172
2.0290,300.000000,300.111072
2.0300,300.000000,300.044195
2.0310,300.000000,300.082497
2.0320,300.000000,299.971882
2.0330,300.000000,300.074988
2.0340,300.000000,300.091632
2.0350,300.000000,300.016473
2.0360,300.000000,300.063066
2.0370,300.000000,300.055604
2.0380,300.000000,300.014617
2.0390,300.000000,300.103103
2.0400,300.000000,300.050931
2.0410,300.000000,300.048062
2.0420,300.000000,300.103036
2.0430,300.000000,300.087578
2.0440,300.000000,300.113793
2.0450,300.000000,300.088810
2.0460,300.000000,300.100738
2.0470,300.000000,300.073639
2.0480,300.000000,300.039363
2.0490,300.000000,300.031060
2.0500,300.000000,300.027120
2.0510,300.000000,300.028540
2.0520,300.000000,300.202294
2.0530,300.000000,300.071444
2.0540,300.000000,300.005453
2.0550,300.000000,300.090850
2.0560,300.000000,300.134835
2.0570,300.000000,300.017683
2.0580,300.000000,300.025000
2.0590,300.000000,299.963472
2.0600,300.000000,300.045417
2.0610,300.000000,300.105622
2.0620,300.000000,300.054176
2.0630,300.000000,300.023503
2.0640,300.000000,300.003644
2.0650,300.000000,300.094478
2.0660,300.000000,300.046684
2.0670,300.000000,300.176255
2.0680,300.000000,300.073035
2.0690,300.000000,300.025790
2.0700,300.000000,300.102477
2.0710,300.000000,300.154154
2.0720,300.000000,300.136790
2.0730,300.000000,299.995925
2.0740,300.000000,299.975725
2.0750,300.000000,299.973164
2.0760,300.000000,300.073729
2.0770,300.000000,300.026922
2.0780,300.000000,300.011571
2.0790,300.000000,300.092543
2.0800,300.000000,300.013389
2.0810,300.000000,300.114264
2.0820,300.000000,300.018729
2.0830,300.000000,300.055869
2.0840,300.000000,300.145342
2.0850,300.000000,300.083093
2.0860,300.000000,300.024156
2.0870,300.000000,300.148579
2.0880,300.000000,300.125054
2.0890,300.000000,300.134564
2.0900,300.000000,299.970921
2.0910,300.000000,300.065031
2.0920,300.000000,300.009205
2.0930,300.000000,300.009597
2.0940,300.000000,300.069048
2.0950,300.000000,299.948332
2.0960,300.000000,300.044633
2.0970,300.000000,300.116115
2.0980,300.000000,300.051029
2.0990,300.000000,300.103930
2.1000,300.000000,300.061349
2.1010,300.000000,300.018778
2.1020,300.000000,300.163372
2.1030,300.000000,300.061588
2.1040,300.000000,300.010965
2.1050,300.000000,300.005446
2.1060,300.000000,300.064448
2.1070,300.000000,300.114499
2.1080,300.000000,300.065724
2.1090,300.000000,299.985726
2.1100,300.000000,300.058494
2.1110,300.000000,300.102574
2.1120,300.000000,300.035979
2.1130,300.000000,300.110659
2.1140,300.000000,299.993085
2.1150,300.000000,300.078684
2.1160,300.000000,300.058886
2.1170,300.000000,300.063831
2.1180,300.000000,300.064009
2.1190,300.000000,300.030775
2.1200,300.000000,300.068308
2.1210,300.000000,300.038031
2.1220,300.000000,300.078564
2.1230,300.000000,300.083775
2.1240,300.000000,300.060261
2.1250,300.000000,300.065676
2.1260,300.000000,300.000284
2.1270,300.000000,300.071392
2.1280,300.000000,300.093785
2.1290,300.000000,300.070648
2.1300,300.000000,300.059430
2.1310,300.000000,299.974201
2.1320,300.000000,300.059449
2.1330,300.000000,299.974329
2.1340,300.000000,299.995303
2.1350,300.000000,299.974110
2.1360,300.000000,299.981134
2.1370,300.000000,300.042543
2.1380,300.000000,299.972046
2.1390,300.000000,299.983596
2.1400,300.000000,300.130403
2.1410,300.000000,300.150697
2.1420,300.000000,300.112587
2.1430,300.000000,300.052205
2.1440,300.000000,300.126907
2.1450,300.000000,300.097532
2.1460,300.000000,299.972293
2.1470,300.000000,300.124774
2.1480,300.000000,299.999676
2.1490,300.000000,300.030919
2.1500,300.000000,300.065423
2.1510,300.000000,300.058729
2.1520,300.000000,300.057507
2.1530,300.000000,300.093680
2.1540,300.000000,300.044401
2.1550,300.000000,300.037710
2.1560,300.000000,300.107353
2.1570,300.000000,300.029445
2.1580,300.000000,300.031973
2.1590,300.000000,300.065634
2.1600,300.000000,300.149323
2.1610,300.000000,300.020979
2.1620,300.000000,299.975054
2.1630,300.000000,300.064683
2.1640,300.000000,300.137785
2.1650,300.000000,300.098050
2.1660,300.000000,300.041993
2.1670,300.000000,300.065131
2.1680,300.000000,300.011121
2.1690,300.000000,299.965474
2.1700,300.000000,300.034106
2.1710,300.000000,299.992265
2.1720,300.000000,300.020722
2.1730,300.000000,299.957460
2.1740,300.000000,300.115011
2.1750,300.000000,300.075242
2.1760,300.000000,300.002078
2.1770,300.000000,300.033769
2.1780,300.000000,300.088875
2.1790,300.000000,300.056649
2.1800,300.000000,300.029984
2.1810,300.000000,300.076995
2.1820,300.000000,300.045734
2.1830,300.000000,300.056065
2.1840,300.000000,300.153354
2.1850,300.000000,300.088225
2.1860,300.000000,300.061854
2.1870,300.000000,300.013073
2.1880,300.000000,300.085382
2.1890,300.000000,300.104456
2.1900,300.000000,300.104084
2.1910,300.000000,300.168356
2.1920,300.000000,299.985418
2.1930,300.000000,299.929782
2.1940,300.000000,300.076905
2.1950,300.000000,299.965919
2.1960,300.000000,299.968912
2.1970,300.000000,300.057376
2.1980,300.000000,300.049521
2.1990,300.000000,300.007301
2.2000,300.000000,300.004312
2.2010,300.000000,300.053099
2.2020,300.000000,300.032990
2.2030,300.000000,300.067495
2.2040,300.000000,300.014074
2.2050,300.000000,300.021020
2.2060,300.000000,299.986515
2.2070,300.000000,300.079236
2.2080,300.000000,300.024023
2.2090,300.000000,300.087171
2.2100,300.000000,299.934399
2.2110,300.000000,299.968878
2.2120,300.000000,300.023790
2.2130,300.000000,299.994139
2.2140,300.000000,299.971020
2.2150,300.000000,300.009972
2.2160,300.000000,300.010556
2.2170,300.000000,300.071148
2.2180,300.000000,300.045244
2.2190,300.000000,300.093737
2.2200,300.000000,300.120267
2.2210,300.000000,300.017902
2.2220,300.000000,300.110195
2.2230,300.000000,300.103106
2.2240,300.000000,300.060096
2.2250,300.000000,300.089310
2.2260,300.000000,300.071619
2.2270,300.000000,300.056123
2.2280,300.000000,300.067453
2.2290,300.000000,300.065158
2.2300,300.000000,300.093615
2.2310,300.000000,299.984121
2.2320,300.000000,300.068736
2.2330,300.000000,299.968540
2.2340,300.000000,300.018978
2.2350,300.000000,300.035165
2.2360,300.000000,299.897389
2.2370,300.000000,300.011164
2.2380,300.000000,300.052353
2.2390,300.000000,300.030083
2.2400,300.000000,299.995754
2.2410,300.000000,300.083964
2.2420,300.000000,300.013634
2.2430,300.000000,300.067937
2.2440,300.000000,300.054769
2.2450,300.000000,300.056907
2.2460,300.000000,300.068548
2.2470,300.000000,300.026206
2.2480,300.000000,300.097967
2.2490,300.000000,300.006367
2.2500,300.000000,300.082604
2.2510,300.000000,300.015872
2.2520,300.000000,299.929351
2.2530,300.000000,299.985183
2.2540,300.000000,300.086759
2.2550,300.000000,300.078142
2.2560,300.000000,299.923423
2.2570,300.000000,299.986891
2.2580,300.000000,299.931120
2.2590,300.000000,300.038709
2.2600,300.000000,300.005913
2.2610,300.001832,300.065446
2.2620,300.002231,300.087315
2.2630,300.002705,300.134021
2.2640,300.003263,300.147958
2.2650,300.003916,300.159428
2.2660,300.004677,300.109425
2.2670,300.005558,300.053543
2.2680,300.006571,299.966432
2.2690,300.007730,300.013188
2.2700,300.009049,299.980070
2.2710,300.010540,300.066126
2.2720,300.012215,300.143364
2.2730,300.014086,299.991864
2.2740,300.016162,299.961506
2.2750,300.018452,299.985439
2.2760,300.020961,300.128507
2.2770,300.023693,300.108860
2.2780,300.026647,300.106531
2.2790,300.029820,299.994428
2.2800,300.033204,300.117427
2.2810,300.036788,300.083662
2.2820,300.040555,300.132965
2.2830,300.044486,300.045195
2.2840,300.048554,300.103957
2.2850,300.052729,300.080851
2.2860,300.056978,300.147959
2.2870,300.061263,300.224926
2.2880,300.065541,300.049467
2.2890,300.069768,300.102603
2.2900,300.073897,300.162896
2.2910,300.077880,300.088210
2.2920,300.081669,300.065680
2.2930,300.085214,300.110677
2.2940,300.088471,300.086057
2.2950,300.091393,300.195615
2.2960,300.093941,300.127477
2.2970,300.096079,300.141391
2.2980,300.097775,300.079153
2.2990,300.099005,300.135984
2.3000,300.099750,300.132710
2.3010,300.100000,300.176626
2.3020,300.099750,300.180797
2.3030,300.099005,300.123016
2.3040,300.097775,300.159117
2.3050,300.096079,300.200554
2.3060,300.093941,300.117663
2.3070,300.091393,300.238450
2.3080,300.088471,300.077103
2.3090,300.085214,300.113965
2.3100,300.081669,300.072102
2.3110,300.077880,300.132439
2.3120,300.073897,300.097893
2.3130,300.069768,300.021425
2.3140,300.065541,300.185675
2.3150,300.061263,300.047016
2.3160,300.056978,299.974075
2.3170,300.052729,300.083138
2.3180,300.048554,300.077779
2.3190,300.044486,300.041377
2.3200,300.040555,300.033088
2.3210,300.036788,300.076256
2.3220,300.033204,300.026648
2.3230,300.029820,300.122960
2.3240,300.026647,300.118422
2.3250,300.023693,300.081325
2.3260,300.020961,300.016096
2.3270,300.018452,300.012260
2.3280,300.016162,300.079677
2.3290,300.014086,300.075078
2.3300,300.012215,300.047019
2.3310,300.010540,300.064388
2.3320,300.009049,300.057232
2.3330,300.007730,300.025994
2.3340,300.006571,300.024846
2.3350,300.005558,299.937428
2.3360,300.004677,300.020406
2.3370,300.003916,300.012933
2.3380,300.003263,299.983944
2.3390,300.002705,300.058835
2.3400,300.002231,300.031852
2.3410,300.000000,300.053484
2.3420,300.000000,299.945345
2.3430,300.000000,300.039863
2.3440,300.000000,300.083610
2.3450,300.000000,300.033345
2.3460,300.000000,300.042555
2.3470,300.000000,300.060197
2.3480,300.000000,300.043461
2.3490,300.000000,300.103896
2.3500,300.000000,300.058770
2.3510,300.000000,300.048936
2.3520,300.000000,300.036202
2.3530,300.000000,300.077954
2.3540,300.000000,300.034334
2.3550,300.000000,299.957143
2.3560,300.000000,300.064288
2.3570,300.000000,299.976634
2.3580,300.000000,300.048193
2.3590,300.000000,299.967164
2.3600,300.000000,299.948049
2.3610,300.000000,300.023561
2.3620,299.979209,300.105163
2.3630,299.959326,299.956455
2.3640,299.941221,299.936553
2.3650,299.925686,299.940827
2.3660,299.913397,299.866281
2.3670,299.904894,300.017875
2.3680,299.900548,300.036475
2.3690,299.918863,299.946798
2.3700,299.939591,299.931854
2.3710,299.975574,299.975692
2.3720,300.031085,299.998795
2.3730,300.110235,300.129083
2.3740,300.215702,300.270977
2.3750,300.347088,300.442401
2.3760,300.499352,300.471294
2.3770,300.641180,300.609979
2.3780,300.778801,300.826693
2.3790,300.894839,300.904995
2.3800,300.972604,300.998918
2.3810,301.000000,301.021381
2.3820,300.972604,301.027468
2.3830,300.894839,300.966017
2.3840,300.778801,300.826603
2.3850,300.641180,300.654372
2.3860,300.499352,300.599349
2.3870,300.367879,300.405240
2.3880,300.256376,300.368171
2.3890,300.169013,300.151667
2.3900,300.105399,300.109398
2.3910,300.062177,300.014938
2.3920,300.034697,300.086937
2.3930,300.000000,300.033097
2.3940,300.000000,300.037160
2.3950,300.000000,299.990050
2.3960,300.000000,300.047930
2.3970,300.000000,300.039775
2.3980,300.000000,299.989172
2.3990,300.000000,300.117628
2.4000,300.000000,300.029560
2.4010,299.850000,299.893906
2.4020,299.870894,299.954583
2.4030,299.888877,299.894944
2.4040,299.904356,299.950365
2.4050,299.917678,299.930979
2.4060,299.929145,299.914662
2.4070,299.939015,300.009552
2.4080,299.947509,299.855985
2.4090,299.954821,299.911432
2.4100,299.961114,300.025857
2.4110,299.966530,299.911533
2.4120,299.971193,299.956244
2.4130,299.975205,299.998926
2.4140,299.978659,300.011739
2.4150,299.981632,300.013951
2.4160,299.984190,300.025715
2.4170,299.986392,299.943692
2.4180,299.988288,300.028487
2.4190,299.989919,299.986560
2.4200,299.991323,299.883849
2.4210,300.000000,300.114619
2.4220,300.000000,300.015673
2.4230,300.000000,300.042396
2.4240,300.000000,300.004820
2.4250,300.000000,300.072222
2.4260,300.000000,300.024084
2.4270,300.000000,300.003946
2.4280,300.000000,300.163582
2.4290,300.000000,299.890717
2.4300,300.000000,299.999160
2.4310,300.000000,300.028980
2.4320,300.000000,299.953765
2.4330,300.000000,299.971335
2.4340,300.000000,300.018323
2.4350,300.000000,299.877976
2.4360,300.000000,300.079897
2.4370,300.000000,300.017939
2.4380,300.000000,300.020467
2.4390,300.000000,300.017395
2.4400,300.000000,299.995126
2.4410,300.000000,300.015462
2.4420,300.000000,300.041608
2.4430,300.000000,300.012870
2.4440,300.000000,300.024300
2.4450,300.000000,300.064963
2.4460,300.000000,299.971967
2.4470,300.000000,300.068543
2.4480,300.000000,300.153693
2.4490,300.000000,300.131153
2.4500,300.000000,300.038924
2.4510,300.000000,299.955466
2.4520,300.000000,300.081439
2.4530,300.000000,299.998267
2.4540,300.000000,300.076011
2.4550,300.000000,299.965645
2.4560,300.000000,299.975357
2.4570,300.000000,300.031569
2.4580,300.000000,299.977519
2.4590,300.000000,300.111217
2.4600,300.000000,300.051651
2.4610,300.005495,300.123736
2.4620,300.006069,299.984364
2.4630,300.006694,300.002483
2.4640,300.007375,300.185785
2.4650,300.008116,299.970856
2.4660,300.008919,300.118948
2.4670,300.009789,300.058952
2.4680,300.010731,300.024157
2.4690,300.011749,300.090546
2.4700,300.012848,300.116956
2.4710,300.014031,300.034134
2.4720,300.015305,300.040361
2.4730,300.016673,300.031404
2.4740,300.018141,300.017892
2.4750,300.019713,299.938791
2.4760,300.021395,299.981207
2.4770,300.023191,300.091493
2.4780,300.025107,300.009385
2.4790,300.027147,299.991533
2.4800,300.029317,300.033628
2.4810,300.031620,300.047446
2.4820,300.034061,299.996196
2.4830,300.036645,300.066461
2.4840,300.039376,300.084827
2.4850,300.042258,300.048053
2.4860,300.045293,300.101966
2.4870,300.048486,300.225630
2.4880,300.051840,300.069568
2.4890,300.055356,300.021509
2.4900,300.059037,300.133074
2.4910,300.062883,300.126524
2.4920,300.066897,300.133973
2.4930,300.071078,300.093606
2.4940,300.075426,300.048251
2.4950,300.079940,300.088770
2.4960,300.084619,300.058023
2.4970,300.089459,300.161428
2.4980,300.094458,300.153583
2.4990,300.099612,300.035116
2.5000,300.104916,300.103453
2.5010,300.110364,300.179014
2.5020,300.115950,300.086987
2.5030,300.121666,300.159695
2.5040,300.127505,300.079031
2.5050,300.133457,300.153736
2.5060,300.139513,300.177213
2.5070,300.145661,300.123399
2.5080,300.151890,300.190286
2.5090,300.158188,300.210754
2.5100,300.164541,300.138310
2.5110,300.170935,300.220843
2.5120,300.177356,300.236896
2.5130,300.183788,300.177546
2.5140,300.190215,300.101849
2.5150,300.196622,300.164270
2.5160,300.202990,300.217464
2.5170,300.209303,300.154975
2.5180,300.215542,300.215284
2.5190,300.221691,300.192104
2.5200,300.227729,300.246283
2.5210,300.233640,300.247954
2.5220,300.239405,300.268122
2.5230,300.245006,300.304620
2.5240,300.250424,300.274820
2.5250,300.255643,300.377647
2.5260,300.260645,300.369110
2.5270,300.265412,300.322758
2.5280,300.269929,300.324604
2.5290,300.274179,300.271526
2.5300,300.278149,300.315457
2.5310,300.281824,300.321346
2.5320,300.285191,300.320013
2.5330,300.288237,300.342990
2.5340,300.290952,300.310631
2.5350,300.293325,300.307757
2.5360,300.295349,300.358347
2.5370,300.297015,300.304140
2.5380,300.298317,300.274769
2.5390,300.299251,300.339807
2.5400,300.299813,300.350959
2.5410,300.300000,300.305643
2.5420,300.299813,300.310940
2.5430,300.299251,300.339957
2.5440,300.298317,300.399043
2.5450,300.297015,300.310062
2.5460,300.295349,300.262746
2.5470,300.293325,300.253723
2.5480,300.290952,300.255485
2.5490,300.288237,300.252763
2.5500,300.285191,300.276351
2.5510,300.281824,300.267126
2.5520,300.278149,300.308571
2.5530,300.274179,300.338398
2.5540,300.269929,300.312456
2.5550,300.265412,300.227134
2.5560,300.260645,300.228948
2.5570,300.255643,300.380545
2.5580,300.250424,300.180042
2.5590,300.245006,300.301524
2.5600,300.239405,300.213563
2.5610,300.233640,300.295777
2.5620,300.227729,300.315508
2.5630,300.221691,300.264377
2.5640,300.215542,300.305035
2.5650,300.209303,300.411811
2.5660,300.202990,300.171064
2.5670,300.196622,300.282962
2.5680,300.190215,300.277071
2.5690,300.183788,300.134707
2.5700,300.177356,300.212124
2.5710,300.170935,300.173494
2.5720,300.164541,300.201637
2.5730,300.158188,300.170039
2.5740,300.151890,300.191846
2.5750,300.145661,300.098266
2.5760,300.139513,300.245193
2.5770,300.133457,300.144105
2.5780,300.127505,300.213837
2.5790,300.121666,300.154851
2.5800,300.115950,300.198401
2.5810,300.110364,300.134386
2.5820,300.104916,300.194112
2.5830,300.099612,300.082153
2.5840,300.094458,300.180815
2.5850,300.089459,300.089117
2.5860,300.084619,300.110902
2.5870,300.079940,300.057893
2.5880,300.075426,300.070031
2.5890,300.071078,300.077889
2.5900,300.066897,300.112787
2.5910,300.062883,300.090137
2.5920,300.059037,300.043745
2.5930,300.055356,300.084020
2.5940,300.051840,300.072032
2.5950,300.048486,300.026595
2.5960,300.045293,300.021814
2.5970,300.042258,300.023925
2.5980,300.039376,300.144189
2.5990,300.036645,300.013587
2.6000,300.034061,300.103934
2.6010,300.031620,300.014919
2.6020,300.029317,300.034239
2.6030,300.027147,300.081852
2.6040,300.025107,300.092678
2.6050,300.023191,300.074583
2.6060,300.021395,300.090211
2.6070,300.019713,300.082560
2.6080,300.018141,300.075557
2.6090,300.016673,300.010946
2.6100,300.015305,300.013882
2.6110,300.014031,300.022136
2.6120,300.012848,300.071560
2.6130,300.011749,300.043852
2.6140,300.010731,300.010939
2.6150,300.009789,300.012719
2.6160,300.008919,299.950408
2.6170,300.008116,299.993436
2.6180,300.007375,299.984475
2.6190,300.006694,300.058326
2.6200,300.006069,300.030158
2.6210,300.000000,300.081159
2.6220,300.000000,300.141314
2.6230,300.000000,300.071349
2.6240,300.000000,299.985626
2.6250,300.000000,300.023671
2.6260,300.000000,299.950795
2.6270,300.000000,300.118557
2.6280,300.000000,300.139446
2.6290,300.000000,299.972619
2.6300,300.000000,299.992516
2.6310,300.000000,299.978612
2.6320,300.000000,299.958999
2.6330,300.000000,299.923685
2.6340,300.000000,300.036403
2.6350,300.000000,299.939192
2.6360,300.000000,299.993616
2.6370,300.000000,299.957464
2.6380,300.000000,299.915482
2.6390,300.000000,299.975295
2.6400,300.000000,299.941064
2.6410,300.000000,300.018818
2.6420,300.000000,300.054310
2.6430,300.000000,300.057534
2.6440,300.000000,300.044027
2.6450,300.000000,300.064716
2.6460,300.000000,299.984369
2.6470,300.000000,300.012688
2.6480,300.000000,300.008245
2.6490,300.000000,299.945481
2.6500,300.000000,299.971211
2.6510,300.000000,299.950449
2.6520,300.000000,299.992855
2.6530,300.000000,300.024201
2.6540,300.000000,299.971515
2.6550,300.000000,299.943799
2.6560,300.000000,299.998116
2.6570,300.000000,299.974130
2.6580,300.000000,299.965614
2.6590,300.000000,300.083708
2.6600,300.000000,300.064098
2.6610,300.000000,300.024878
2.6620,300.000000,299.997845
2.6630,300.000000,300.005325
2.6640,300.000000,299.988795
2.6650,300.000000,299.995551
2.6660,300.000000,300.025076
2.6670,300.000000,299.903609
2.6680,300.000000,300.093130
2.6690,300.000000,300.037208
2.6700,300.000000,299.967842
2.6710,300.000000,300.076719
2.6720,300.000000,300.030817
2.6730,300.000000,300.033414
2.6740,300.000000,299.974636
2.6750,300.000000,300.017145
2.6760,300.000000,299.908093
2.6770,300.000000,300.010294
2.6780,300.000000,299.981411
2.6790,300.000000,300.052194
2.6800,300.000000,299.991607
2.6810,300.000000,299.988871
2.6820,300.000000,300.081278
2.6830,300.000000,300.082476
2.6840,300.000000,300.068538
2.6850,300.000000,300.052597
2.6860,300.000000,300.063648
2.6870,300.000000,300.014275
2.6880,300.000000,299.978643
2.6890,300.000000,300.032685
2.6900,300.000000,299.923886
2.6910,300.000000,300.070395
2.6920,300.000000,299.993495
2.6930,300.000000,299.985724
2.6940,300.000000,299.944209
2.6950,300.000000,300.055435
2.6960,300.000000,300.026354
2.6970,300.000000,300.006294
2.6980,300.000000,300.025584
2.6990,300.000000,300.009073
2.7000,300.000000,300.051445
2.7010,300.000000,299.998481
2.7020,300.000000,300.022456
2.7030,300.000000,300.053172
2.7040,300.000000,299.958319
2.7050,300.000000,299.965252
2.7060,300.000000,300.120464
2.7070,300.000000,299.982240
2.7080,300.000000,300.097577
2.7090,300.000000,299.997679
2.7100,300.000000,299.954357
2.7110,300.000000,300.062896
2.7120,300.000000,300.027900
2.7130,300.000000,300.029089
2.7140,300.000000,299.930806
2.7150,300.000000,300.011433
2.7160,300.000000,299.838009
2.7170,300.000000,300.012698
2.7180,300.000000,299.952508
2.7190,300.000000,300.074254
2.7200,300.000000,300.055692
2.7210,300.000000,300.024250
2.7220,300.000000,300.074536
2.7230,300.000000,300.144731
2.7240,300.000000,300.025222
2.7250,300.000000,300.045909
2.7260,300.000000,299.965370
2.7270,300.000000,299.981477
2.7280,300.000000,299.974532
2.7290,300.000000,300.017322
2.7300,300.000000,300.027287
2.7310,300.000000,299.968416
2.7320,300.000000,300.010895
2.7330,300.000000,300.042144
2.7340,300.000000,299.998327
2.7350,300.000000,300.042857
2.7360,300.000000,299.901540
2.7370,300.000000,299.912981
2.7380,300.000000,300.028152
2.7390,300.000000,300.014250
2.7400,300.000000,300.012143
2.7410,300.000000,300.020033
2.7420,300.000000,299.963120
2.7430,300.000000,299.938874
2.7440,300.000000,300.073534
2.7450,300.000000,300.082789
2.7460,300.000000,299.992702
2.7470,300.000000,299.918204
2.7480,300.000000,300.012712
2.7490,300.000000,299.980055
2.7500,300.000000,300.049250
2.7510,300.000000,299.953629
2.7520,300.000000,300.031586
2.7530,300.000000,299.996749
2.7540,300.000000,300.053741
2.7550,300.000000,300.015437
2.7560,300.000000,299.968870
2.7570,300.000000,300.009948
2.7580,300.000000,299.996121
2.7590,300.000000,299.924993
2.7600,300.000000,300.037934
2.7610,300.000000,300.011183
2.7620,300.000000,299.912572
2.7630,300.000000,299.951367
2.7640,300.000000,299.998024
2.7650,300.000000,300.070957
2.7660,300.000000,299.994284
2.7670,300.000000,300.060678
2.7680,300.000000,300.058377
2.7690,300.000000,300.004106
2.7700,300.000000,300.045193
2.7710,300.000000,299.998345
2.7720,300.000000,299.957940
2.7730,300.000000,299.979681
2.7740,300.000000,299.948855
2.7750,300.000000,300.027473
2.7760,300.000000,300.011435
2.7770,300.000000,300.067866
2.7780,300.000000,299.991846
2.7790,300.000000,300.020256
2.7800,300.000000,300.021978
2.7810,300.000000,300.039860
2.7820,300.000000,300.040693
2.7830,300.000000,299.985281
2.7840,300.000000,300.032590
2.7850,300.000000,300.028491
2.7860,300.000000,300.136292
2.7870,300.000000,299.936794
2.7880,300.000000,300.057844
2.7890,300.000000,300.089556
2.7900,300.000000,299.960917
2.7910,300.000000,300.108678
2.7920,300.000000,300.004053
2.7930,300.000000,299.980668
2.7940,300.000000,299.993026
2.7950,300.000000,299.996761
2.7960,300.000000,300.000495
2.7970,300.000000,299.932148
2.7980,300.000000,300.018170
2.7990,300.000000,299.914667
2.8000,300.000000,299.985895
2.8010,300.000000,299.995786
2.8020,300.000000,300.021396
2.8030,300.000000,300.019114
2.8040,300.000000,300.039184
2.8050,300.000000,299.959730
2.8060,300.000000,300.026874
2.8070,300.000000,299.977776
2.8080,300.000000,300.033525
2.8090,300.000000,300.100105
2.8100,300.000000,300.011485
2.8110,300.000000,300.078272
2.8120,300.000000,300.007155
2.8130,300.000000,299.957163
2.8140,300.000000,299.998328
2.8150,300.000000,299.883339
2.8160,300.000000,299.999208
2.8170,300.000000,300.053030
2.8180,300.000000,299.943931
2.8190,300.000000,300.053703
2.8200,300.000000,299.960352
2.8210,300.000000,300.004802
2.8220,300.000000,299.964283
2.8230,300.000000,300.022240
2.8240,300.000000,300.173280
2.8250,300.000000,299.996177
2.8260,300.000000,300.016442
2.8270,300.000000,300.022525
2.8280,300.000000,300.010170
2.8290,300.000000,300.068473
2.8300,300.000000,299.974031
2.8310,300.000000,300.015345
2.8320,300.000000,299.973969
2.8330,300.000000,300.069283
2.8340,300.000000,299.998892
2.8350,300.000000,299.992245
2.8360,300.000000,300.022094
2.8370,300.000000,300.061513
2.8380,300.000000,300.044281
2.8390,300.000000,300.042663
2.8400,300.000000,300.067847
2.8410,300.000000,300.011289
2.8420,300.000000,300.119804
2.8430,300.000000,300.063338
2.8440,300.000000,300.052378
2.8450,300.000000,300.019771
2.8460,300.000000,299.949254
2.8470,300.000000,300.024655
2.8480,300.000000,299.973420
2.8490,300.000000,299.988600
2.8500,300.000000,300.011167
2.8510,300.000000,300.066162
2.8520,300.000000,299.986859
2.8530,300.000000,299.939579
2.8540,300.000000,299.913630
2.8550,300.000000,299.930768
2.8560,300.000000,300.092839
2.8570,300.000000,299.959950
2.8580,300.000000,299.903465
2.8590,300.000000,300.013073
2.8600,300.000000,299.974185
2.8610,300.000000,300.009539
2.8620,300.000000,300.060120
2.8630,300.000000,300.082042
2.8640,300.000000,300.018415
2.8650,300.000000,300.041203
2.8660,300.000000,300.089056
2.8670,300.000000,299.981486
2.8680,300.000000,299.952692
2.8690,300.000000,300.034879
2.8700,300.000000,299.952672
2.8710,300.000000,299.976082
2.8720,300.000000,299.992464
2.8730,300.000000,299.998025
2.8740,300.000000,299.970468
2.8750,300.000000,300.033626
2.8760,300.000000,299.980953
2.8770,300.000000,299.905934
2.8780,300.000000,300.003475
2.8790,300.000000,300.005096
2.8800,300.000000,299.989150
2.8810,300.000000,299.997851
2.8820,300.000000,299.990654
2.8830,300.000000,299.977111
2.8840,300.000000,300.097915
2.8850,300.000000,300.054872
2.8860,300.000000,300.056540
2.8870,300.000000,300.008781
2.8880,300.000000,299.970722
2.8890,300.000000,299.858150
2.8900,300.000000,300.060660
2.8910,300.000000,300.100504
2.8920,300.000000,299.924011
2.8930,300.000000,299.888881
2.8940,300.000000,300.017119
2.8950,300.000000,300.072985
2.8960,300.000000,299.946694
2.8970,300.000000,300.084994
2.8980,300.000000,300.016176
2.8990,300.000000,299.872396
2.9000,300.000000,300.060938
2.9010,300.000000,299.997048
2.9020,300.000000,300.008492
2.9030,300.000000,300.005836
2.9040,300.000000,300.026315
2.9050,300.000000,299.980409
2.9060,300.000000,299.963744
2.9070,300.000000,300.049500
2.9080,300.000000,299.953790
2.9090,300.000000,299.955711
2.9100,300.000000,299.903983
2.9110,300.000000,300.043717
2.9120,300.000000,300.110051
2.9130,300.000000,299.919905
2.9140,300.000000,299.947416
2.9150,300.000000,299.982326
2.9160,300.000000,300.024998
2.9170,300.000000,299.983086
2.9180,300.000000,300.073407
2.9190,300.000000,299.959265
2.9200,300.000000,300.003044
2.9210,300.000000,300.010887
2.9220,300.000000,299.926876
2.9230,300.000000,300.012664
2.9240,300.000000,300.037306
2.9250,300.000000,299.947340
2.9260,300.000000,299.984504
2.9270,300.000000,300.109826
2.9280,300.000000,299.976992
2.9290,300.000000,300.015131
2.9300,300.000000,299.987437
2.9310,300.000000,299.965437
2.9320,300.000000,299.930952
2.9330,300.000000,300.004572
2.9340,300.000000,299.936930
2.9350,300.000000,299.961974
2.9360,300.000000,300.045054
2.9370,300.000000,299.942048
2.9380,300.000000,300.048056
2.9390,300.000000,299.973469
2.9400,300.000000,299.992042
2.9410,300.000000,300.031724
2.9420,300.000000,299.943646
2.9430,300.000000,300.054702
2.9440,300.000000,299.971580
2.9450,300.000000,300.031385
2.9460,300.000000,299.962775
2.9470,300.000000,300.036835
2.9480,300.000000,299.944331
2.9490,300.000000,299.980303
2.9500,300.000000,299.974787
2.9510,300.000000,300.021613
2.9520,300.000000,300.062605
2.9530,300.000000,299.962885
2.9540,300.000000,299.965671
2.9550,300.000000,299.946048
2.9560,300.000000,300.061223
2.9570,300.000000,299.971935
2.9580,300.000000,300.013664
2.9590,300.000000,300.014762
2.9600,300.000000,299.961542
2.9610,300.000000,300.035512
2.9620,300.000000,300.075778
2.9630,300.000000,299.995903
2.9640,300.000000,300.068996
2.9650,300.000000,300.036204
2.9660,300.000000,299.961591
2.9670,300.000000,300.095586
2.9680,300.000000,300.051466
2.9690,300.000000,299.944267
2.9700,300.000000,299.955043
2.9710,300.000000,300.060216
2.9720,300.000000,299.940943
2.9730,300.000000,299.918673
2.9740,300.000000,299.904369
2.9750,300.000000,299.948430
2.9760,300.000000,300.018115
2.9770,300.000000,299.998308
2.9780,300.000000,299.926759
2.9790,300.000000,299.981282
2.9800,300.000000,300.033077
2.9810,300.000000,299.964987
2.9820,300.000000,300.004655
2.9830,300.000000,300.104264
2.9840,300.000000,300.024092
2.9850,300.000000,300.102299
2.9860,300.000000,299.981516
2.9870,300.000000,299.996655
2.9880,300.000000,300.076318
2.9890,300.000000,300.010870
2.9900,300.000000,299.940296
2.9910,300.000000,300.097089
2.9920,300.000000,300.003815
2.9930,300.000000,300.079308
2.9940,300.000000,299.948795
2.9950,300.000000,299.972894
2.9960,300.000000,300.016244
2.9970,300.000000,300.055591
2.9980,300.000000,300.041727
2.9990,300.000000,299.874855
3.0000,300.000000,299.966229
3.0010,300.000000,300.015141
3.0020,300.000000,300.051404
3.0030,300.000000,299.999821
3.0040,300.000000,300.000733
3.0050,300.000000,300.032591
3.0060,300.000000,299.977118
3.0070,300.000000,299.985015
3.0080,300.000000,300.021183
3.0090,300.000000,300.005611
3.0100,300.001832,299.945085
3.0110,300.002231,300.010521
3.0120,300.002705,300.013098
3.0130,300.003263,300.057290
3.0140,300.003916,299.984082
3.0150,300.004677,300.042761
3.0160,300.005558,299.886484
3.0170,300.006571,299.988866
3.0180,300.007730,299.972276
3.0190,300.009049,299.979431
3.0200,300.010540,300.033176
3.0210,300.012215,299.928330
3.0220,300.014086,299.942603
3.0230,300.016162,300.063135
3.0240,300.018452,300.048139
3.0250,300.020961,300.005628
3.0260,300.023693,300.108854
3.0270,300.026647,300.095190
3.0280,300.029820,300.060052
3.0290,300.033204,299.970806
3.0300,300.036788,300.104893
3.0310,300.040555,299.940675
3.0320,300.044486,299.978076
3.0330,300.048554,300.074019
3.0340,300.052729,299.960059
3.0350,300.056978,300.106956
3.0360,300.061263,300.139666
3.0370,300.065541,300.082281
3.0380,300.069768,300.022163
3.0390,300.073897,300.003881
3.0400,300.077880,300.002765
3.0410,300.081669,300.103928
3.0420,300.085214,300.103122
3.0430,300.088471,300.115761
3.0440,300.091393,300.181389
3.0450,300.093941,300.154119
3.0460,300.096079,300.131270
3.0470,300.097775,300.119739
3.0480,300.099005,300.060729
3.0490,300.099750,300.131701
3.0500,300.100000,300.112883
3.0510,300.099750,300.148763
3.0520,300.099005,300.101678
3.0530,300.097775,300.201792
3.0540,300.096079,300.137605
3.0550,300.093941,299.982404
3.0560,300.091393,300.085227
3.0570,300.088471,300.136796
3.0580,300.085214,300.043589
3.0590,300.081669,300.044099
3.0600,300.077880,300.162842
3.0610,300.073897,300.031844
3.0620,300.069768,300.111959
3.0630,300.065541,300.077320
3.0640,300.061263,300.115964
3.0650,300.056978,300.049001
3.0660,300.052729,300.039257
3.0670,300.048554,300.121045
3.0680,300.044486,300.136610
3.0690,300.040555,300.038573
3.0700,300.036788,300.059361
3.0710,300.033204,300.070124
3.0720,300.029820,300.028670
3.0730,300.026647,300.045894
3.0740,300.023693,300.091369
3.0750,300.020961,299.935897
3.0760,300.018452,300.050247
3.0770,300.016162,300.107727
3.0780,300.014086,300.056513
3.0790,300.012215,299.944770
3.0800,300.010540,300.093905
3.0810,300.009049,300.015077
3.0820,300.007730,300.050142
3.0830,300.006571,300.075447
3.0840,300.005558,300.098344
3.0850,300.004677,299.984364
3.0860,300.003916,300.026766
3.0870,300.003263,300.034425
3.0880,300.002705,299.971657
3.0890,300.002231,300.048308
3.0900,300.000000,299.987721
3.0910,300.000000,299.998688
3.0920,300.000000,299.964302
3.0930,300.000000,300.013457
3.0940,300.000000,299.952242
3.0950,300.000000,299.978631
3.0960,300.000000,299.982119
3.0970,300.000000,299.957534
3.0980,300.000000,299.897693
3.0990,300.000000,300.028643
3.1000,300.000000,299.999064
3.1010,300.000000,299.989227
3.1020,300.000000,300.010697
3.1030,300.000000,300.058705
3.1040,300.000000,300.127304
3.1050,300.000000,299.934611
3.1060,300.000000,300.040817
3.1070,300.000000,299.993078
3.1080,300.000000,300.083734
3.1090,300.000000,299.940897
3.1100,300.000000,300.005343
3.1110,299.979209,299.965669
3.1120,299.959326,299.892069
3.1130,299.941221,299.892989
3.1140,299.925686,299.891769
3.1150,299.913397,299.901389
3.1160,299.904894,299.766856
3.1170,299.900548,299.870672
3.1180,299.918863,299.945716
3.1190,299.939591,300.000119
3.1200,299.975574,299.991806
3.1210,300.031085,300.065000
3.1220,300.110235,300.059187
3.1230,300.215702,300.215338
3.1240,300.347088,300.304306
3.1250,300.499352,300.510409
3.1260,300.641180,300.775354
3.1270,300.778801,300.868429
3.1280,300.894839,300.946542
3.1290,300.972604,300.995035
3.1300,301.000000,300.987785
3.1310,300.972604,300.999350
3.1320,300.894839,300.853311
3.1330,300.778801,300.871241
3.1340,300.641180,300.664005
3.1350,300.499352,300.528143
3.1360,300.367879,300.324517
3.1370,300.256376,300.217470
3.1380,300.169013,300.120597
3.1390,300.105399,300.037046
3.1400,300.062177,300.132045
3.1410,300.034697,300.075379
3.1420,300.000000,299.991368
3.1430,300.000000,299.986320
3.1440,300.000000,300.092394
3.1450,300.000000,300.046235
3.1460,300.000000,299.998171
3.1470,300.000000,300.074558
3.1480,300.000000,300.107197
3.1490,300.000000,299.977549
3.1500,299.850000,299.829358
3.1510,299.870894,299.853859
3.1520,299.888877,299.892222
3.1530,299.904356,299.886682
3.1540,299.917678,299.825910
3.1550,299.929145,299.863615
3.1560,299.939015,299.926594
3.1570,299.947509,300.007032
3.1580,299.954821,299.954021
3.1590,299.961114,300.001528
3.1600,299.966530,299.983843
3.1610,299.971193,299.969574
3.1620,299.975205,299.943398
3.1630,299.978659,300.013784
3.1640,299.981632,300.062443
3.1650,299.984190,299.941050
3.1660,299.986392,300.034205
3.1670,299.988288,299.976797
3.1680,299.989919,300.019480
3.1690,299.991323,299.960644
3.1700,300.000000,300.007442
3.1710,300.000000,299.946668
3.1720,300.000000,300.036918
3.1730,300.000000,299.986759
3.1740,300.000000,300.070588
3.1750,300.000000,299.995423
3.1760,300.000000,299.931198
3.1770,300.000000,299.904515
3.1780,300.000000,300.059432
3.1790,300.000000,299.964081
3.1800,300.000000,299.950843
3.1810,300.000000,300.073549
3.1820,300.000000,299.990152
3.1830,300.000000,300.061959
3.1840,300.000000,300.036796
3.1850,300.000000,299.924382
3.1860,300.000000,300.051167
3.1870,300.000000,299.967672
3.1880,300.000000,299.950219
3.1890,300.000000,299.895473
3.1900,300.000000,299.942354
3.1910,300.000000,299.976073
3.1920,300.000000,299.992329
3.1930,300.000000,299.991470
3.1940,300.000000,300.025244
3.1950,300.000000,299.895055
3.1960,300.000000,299.877032
3.1970,300.000000,300.108021
3.1980,300.000000,299.985495
3.1990,300.000000,300.020640
3.2000,300.000000,299.928143
3.2010,300.000000,300.040370
3.2020,300.000000,300.064271
3.2030,300.000000,299.920802
3.2040,300.000000,300.043519
3.2050,300.000000,300.043593
3.2060,300.000000,299.894416
3.2070,300.000000,300.025386
3.2080,300.000000,299.979214
3.2090,300.000000,300.029296
3.2100,300.005495,300.040503
3.2110,300.006069,300.023401
3.2120,300.006694,299.979681
3.2130,300.007375,299.969618
3.2140,300.008116,299.999748
3.2150,300.008919,299.976058
3.2160,300.009789,299.916899
3.2170,300.010731,300.004321
3.2180,300.011749,299.990933
3.2190,300.012848,299.997525
3.2200,300.014031,299.996241
3.2210,300.015305,300.011642
3.2220,300.016673,299.995944
3.2230,300.018141,300.077218
3.2240,300.019713,300.016986
3.2250,300.021395,300.045449
3.2260,300.023191,300.006905
3.2270,300.025107,299.986605
3.2280,300.027147,300.033261
3.2290,300.029317,300.069370
3.2300,300.031620,300.083504
3.2310,300.034061,300.063689
3.2320,300.036645,299.977708
3.2330,300.039376,300.026013
3.2340,300.042258,300.019082
3.2350,300.045293,300.061704
3.2360,300.048486,300.054956
3.2370,300.051840,300.004427
3.2380,300.055356,300.061021
3.2390,300.059037,300.081456
3.2400,300.062883,300.079355
3.2410,300.066897,300.071282
3.2420,300.071078,300.050019
3.2430,300.075426,300.071540
3.2440,300.079940,300.207208
3.2450,300.084619,300.045438
3.2460,300.089459,300.202608
3.2470,300.094458,300.204392
3.2480,300.099612,300.046372
3.2490,300.104916,300.080005
3.2500,300.110364,300.095000
3.2510,300.115950,300.079015
3.2520,300.121666,300.079642
3.2530,300.127505,300.146188
3.2540,300.133457,300.127245
3.2550,300.139513,300.147034
3.2560,300.145661,300.118971
3.2570,300.151890,300.124561
3.2580,300.158188,300.109002
3.2590,300.164541,300.182341
3.2600,300.170935,300.221903
3.2610,300.177356,300.126179
3.2620,300.183788,300.234835
3.2630,300.190215,300.220136
3.2640,300.196622,300.157823
3.2650,300.202990,300.150861
3.2660,300.209303,300.214507
3.2670,300.215542,300.205892
3.2680,300.221691,300.285592
3.2690,300.227729,300.214347
3.2700,300.233640,300.206553
3.2710,300.239405,300.211128
3.2720,300.245006,300.221505
3.2730,300.250424,300.248218
3.2740,300.255643,300.289918
3.2750,300.260645,300.178994
3.2760,300.265412,300.266218
3.2770,300.269929,300.186849
3.2780,300.274179,300.314716
3.2790,300.278149,300.194229
3.2800,300.281824,300.343032
3.2810,300.285191,300.338552
3.2820,300.288237,300.260767
3.2830,300.290952,300.280429
3.2840,300.293325,300.217556
3.2850,300.295349,300.227303
3.2860,300.297015,300.301067
3.2870,300.298317,300.324075
3.2880,300.299251,300.363013
3.2890,300.299813,300.291902
3.2900,300.300000,300.293258
3.2910,300.299813,300.230781
3.2920,300.299251,300.280150
3.2930,300.298317,300.286989
3.2940,300.297015,300.307367
3.2950,300.295349,300.273002
3.2960,300.293325,300.321262
3.2970,300.290952,300.275842
3.2980,300.288237,300.269722
3.2990,300.285191,300.318992
3.3000,300.281824,300.322164
3.3010,300.278149,300.268223
3.3020,300.274179,300.376001
3.3030,300.269929,300.299213
3.3040,300.265412,300.290104
3.3050,300.260645,300.264949
3.3060,300.255643,300.297049
3.3070,300.250424,300.310179
3.3080,300.245006,300.261432
3.3090,300.239405,300.256472
3.3100,300.233640,300.177744
3.3110,300.227729,300.179680
3.3120,300.221691,300.171357
3.3130,300.215542,300.211719
3.3140,300.209303,300.133691
3.3150,300.202990,300.082434
3.3160,300.196622,300.107731
3.3170,300.190215,300.200673
3.3180,300.183788,300.255831
3.3190,300.177356,300.218623
3.3200,300.170935,300.116842
3.3210,300.164541,300.127873
3.3220,300.158188,300.138451
3.3230,300.151890,300.090669
3.3240,300.145661,300.154526
3.3250,300.139513,300.182284
3.3260,300.133457,300.103224
3.3270,300.127505,300.083812
3.3280,300.121666,300.172348
3.3290,300.115950,300.076792
3.3300,300.110364,300.070775
3.3310,300.104916,299.978959
3.3320,300.099612,300.133808
3.3330,300.094458,300.144072
3.3340,300.089459,300.054090
3.3350,300.084619,300.061345
3.3360,300.079940,300.084880
3.3370,300.075426,300.092244
3.3380,300.071078,300.055297
3.3390,300.066897,300.031368
3.3400,300.062883,300.054875
3.3410,300.059037,300.045841
3.3420,300.055356,300.078949
3.3430,300.051840,300.013865
3.3440,300.048486,300.125854
3.3450,300.045293,300.163844
3.3460,300.042258,300.025098
3.3470,300.039376,300.016327
3.3480,300.036645,300.005829
3.3490,300.034061,300.016484
3.3500,300.031620,300.118777
3.3510,300.029317,299.994347
3.3520,300.027147,300.021789
3.3530,300.025107,299.985468
3.3540,300.023191,299.901590
3.3550,300.021395,299.973600
3.3560,300.019713,299.998322
3.3570,300.018141,300.078019
3.3580,300.016673,299.917415
3.3590,300.015305,300.056328
3.3600,300.014031,300.025303
3.3610,300.012848,300.013933
3.3620,300.011749,299.971210
3.3630,300.010731,300.088191
3.3640,300.009789,300.045367
3.3650,300.008919,300.026502
3.3660,300.008116,300.021767
3.3670,300.007375,300.069832
3.3680,300.006694,299.975301
3.3690,300.006069,300.083394
3.3700,300.000000,300.109481
3.3710,300.000000,299.978277
3.3720,300.000000,300.052681
3.3730,300.000000,299.954266
3.3740,300.000000,299.924008
3.3750,300.000000,299.950567
3.3760,300.000000,300.001214
3.3770,300.000000,299.971492
3.3780,300.000000,300.008100
3.3790,300.000000,300.006483
3.3800,300.000000,299.978239
3.3810,300.000000,299.944474
3.3820,300.000000,300.009784
3.3830,300.000000,299.947010
3.3840,300.000000,300.022121
3.3850,300.000000,300.036355
3.3860,300.000000,299.902184
3.3870,300.000000,300.079243
3.3880,300.000000,299.994468
3.3890,300.000000,300.031333
3.3900,300.000000,299.967031
3.3910,300.000000,299.973103
3.3920,300.000000,300.068223
3.3930,300.000000,299.915838
3.3940,300.000000,299.955138
3.3950,300.000000,299.982240
3.3960,300.000000,299.857237
3.3970,300.000000,299.937125
3.3980,300.000000,300.028640
3.3990,300.000000,299.929436
3.4000,300.000000,300.007622
3.4010,300.000000,300.022916
3.4020,300.000000,300.036842
3.4030,300.000000,299.963115
3.4040,300.000000,300.026852
3.4050,300.000000,299.961211
3.4060,300.000000,300.004027
3.4070,300.000000,300.059409
3.4080,300.000000,299.969100
3.4090,300.000000,300.032632
3.4100,300.000000,299.996033
3.4110,300.000000,300.031657
3.4120,300.000000,299.889698
3.4130,300.000000,300.042600
3.4140,300.000000,299.890715
3.4150,300.000000,299.918515
3.4160,300.000000,300.038088
3.4170,300.000000,299.979988
3.4180,300.000000,299.966028
3.4190,300.000000,300.040849
3.4200,300.000000,299.993504
3.4210,300.000000,299.956534
3.4220,300.000000,300.074068
3.4230,300.000000,300.029276
3.4240,300.000000,299.954990
3.4250,300.000000,299.981425
3.4260,300.000000,299.968769
3.4270,300.000000,299.956956
3.4280,300.000000,300.004930
3.4290,300.000000,300.002325
3.4300,300.000000,300.021160
3.4310,300.000000,300.021757
3.4320,300.000000,300.030481
3.4330,300.000000,300.034730
3.4340,300.000000,300.005263
3.4350,300.000000,299.997771
3.4360,300.000000,300.029325
3.4370,300.000000,300.004421
3.4380,300.000000,299.940558
3.4390,300.000000,299.924121
3.4400,300.000000,299.948665
3.4410,300.000000,300.021891
3.4420,300.000000,299.996412
3.4430,300.000000,300.027477
3.4440,300.000000,300.006075
3.4450,300.000000,299.973974
3.4460,300.000000,299.889309
3.4470,300.000000,299.955122
3.4480,300.000000,300.099059
3.4490,300.000000,300.054258
3.4500,300.000000,299.962491
3.4510,300.000000,299.967003
3.4520,300.000000,299.963065
3.4530,300.000000,300.038264
3.4540,300.000000,300.026357
3.4550,300.000000,300.028111
3.4560,300.000000,299.930255
3.4570,300.000000,300.073027
3.4580,300.000000,299.973632
3.4590,300.000000,300.035619
3.4600,300.000000,300.014524
3.4610,300.000000,299.920569
3.4620,300.000000,299.985917
3.4630,300.000000,300.014076
3.4640,300.000000,299.977706
3.4650,300.000000,299.945878
3.4660,300.000000,299.995957
3.4670,300.000000,300.081460
3.4680,300.000000,300.039246
3.4690,300.000000,299.978320
3.4700,300.000000,300.010869
3.4710,300.000000,299.925629
3.4720,300.000000,299.986967
3.4730,300.000000,299.886399
3.4740,300.000000,299.921272
3.4750,300.000000,300.019564
3.4760,300.000000,299.950516
3.4770,300.000000,299.960339
3.4780,300.000000,299.982498
3.4790,300.000000,300.070128
3.4800,300.000000,299.815467
3.4810,300.000000,299.958698
3.4820,300.000000,300.129508
3.4830,300.000000,300.072894
3.4840,300.000000,300.043656
3.4850,300.000000,300.031635
3.4860,300.000000,300.005021
3.4870,300.000000,299.945953
3.4880,300.000000,299.989106
3.4890,300.000000,299.998458
3.4900,300.000000,300.055630
3.4910,300.000000,300.009653
3.4920,300.000000,299.989858
3.4930,300.000000,299.949446
3.4940,300.000000,299.955773
3.4950,300.000000,299.891067
3.4960,300.000000,299.990765
3.4970,300.000000,299.920090
3.4980,300.000000,299.969129
3.4990,300.000000,300.043384
3.5000,300.000000,300.011496
3.5010,300.000000,300.021211
3.5020,300.000000,300.071389
3.5030,300.000000,300.048707
3.5040,300.000000,300.010703
3.5050,300.000000,299.918506
3.5060,300.000000,299.996506
3.5070,300.000000,300.010373
3.5080,300.000000,300.010518
3.5090,300.000000,299.923812
3.5100,300.000000,300.007877
3.5110,300.000000,300.029128
3.5120,300.000000,299.968128
3.5130,300.000000,300.004652
3.5140,300.000000,299.945903
3.5150,300.000000,299.990352
3.5160,300.000000,300.073083
3.5170,300.000000,299.961419
3.5180,300.000000,299.929112
3.5190,300.000000,300.029181
3.5200,300.000000,299.984689
3.5210,300.000000,299.965426
3.5220,300.000000,299.972542
3.5230,300.000000,300.026373
3.5240,300.000000,300.019458
3.5250,300.000000,300.082478
3.5260,300.000000,300.038141
3.5270,300.000000,300.062466
3.5280,300.000000,300.011038
3.5290,300.000000,300.028884
3.5300,300.000000,299.995778
3.5310,300.000000,300.082552
3.5320,300.000000,300.009874
3.5330,300.000000,299.909473
3.5340,300.000000,299.969827
3.5350,300.000000,299.989716
3.5360,300.000000,299.978598
3.5370,300.000000,300.023812
3.5380,300.000000,299.962499
3.5390,300.000000,299.993687
3.5400,300.000000,300.044240
3.5410,300.000000,299.934946
3.5420,300.000000,299.962740
3.5430,300.000000,300.111182
3.5440,300.000000,299.999698
3.5450,300.000000,300.061388
3.5460,300.000000,300.072206
3.5470,300.000000,299.950891
3.5480,300.000000,299.968335
3.5490,300.000000,300.006220
3.5500,300.000000,299.965788
3.5510,300.000000,300.013500
3.5520,300.000000,300.014168
3.5530,300.000000,299.993610
3.5540,300.000000,299.978045
3.5550,300.000000,300.008335
3.5560,300.000000,300.040182
3.5570,300.000000,300.048444
3.5580,300.000000,300.001253
3.5590,300.000000,299.949508
3.5600,300.000000,299.990745
3.5610,300.000000,300.039539
3.5620,300.000000,300.066200
3.5630,300.000000,300.069001
3.5640,300.000000,300.009696
3.5650,300.000000,300.030754
3.5660,300.000000,300.044494
3.5670,300.000000,300.088701
3.5680,300.000000,299.973447
3.5690,300.000000,300.028631
3.5700,300.000000,299.973727
3.5710,300.000000,300.051687
3.5720,300.000000,299.986049
3.5730,300.000000,299.995169
3.5740,300.000000,299.938513
3.5750,300.000000,299.958024
3.5760,300.000000,300.079619
3.5770,300.000000,300.013985
3.5780,300.000000,299.996981
3.5790,300.000000,300.061774
3.5800,300.000000,300.074825
3.5810,300.000000,300.003555
3.5820,300.000000,299.972945
3.5830,300.000000,300.007922
3.5840,300.000000,300.000327
3.5850,300.000000,300.024413
3.5860,300.000000,300.031967
3.5870,300.000000,300.141634
3.5880,300.000000,299.959130
3.5890,300.000000,299.940077
3.5900,300.000000,299.969892
3.5910,300.000000,299.841373
3.5920,300.000000,299.892922
3.5930,300.000000,299.916808
3.5940,300.000000,300.036913
3.5950,300.000000,299.911676
3.5960,300.000000,299.895375
3.5970,300.000000,299.940859
3.5980,300.000000,300.007463
3.5990,300.000000,299.967422
3.6000,300.000000,299.982139
3.6010,300.000000,299.976688
3.6020,300.000000,299.944753
3.6030,300.000000,299.969166
3.6040,300.000000,299.977324
3.6050,300.000000,300.050868
3.6060,300.000000,299.962183
3.6070,300.000000,300.066349
3.6080,300.000000,300.045082
3.6090,300.000000,299.927108
3.6100,300.000000,300.018425
3.6110,300.000000,299.995715
3.6120,300.000000,300.055387
3.6130,300.000000,299.942042
3.6140,300.000000,300.012776
3.6150,300.000000,300.018884
3.6160,300.000000,299.892794
3.6170,300.000000,300.048341
3.6180,300.000000,299.950571
3.6190,300.000000,300.016315
3.6200,300.000000,299.987999
3.6210,300.000000,299.995631
3.6220,300.000000,299.970492
3.6230,300.000000,299.985513
3.6240,300.000000,300.040492
3.6250,300.000000,300.089851
3.6260,300.000000,299.957107
3.6270,300.000000,299.988567
3.6280,300.000000,300.023778
3.6290,300.000000,300.015540
3.6300,300.000000,300.023977
3.6310,300.000000,300.050807
3.6320,300.000000,299.901414
3.6330,300.000000,299.954165
3.6340,300.000000,300.032082
3.6350,300.000000,299.969924
3.6360,300.000000,299.922338
3.6370,300.000000,299.919404
3.6380,300.000000,299.986456
3.6390,300.000000,299.971974
3.6400,300.000000,300.106676
3.6410,300.000000,299.997140
3.6420,300.000000,299.972364
3.6430,300.000000,300.077391
3.6440,300.000000,300.013837
3.6450,300.000000,300.057503
3.6460,300.000000,300.111873
3.6470,300.000000,300.088810
3.6480,300.000000,300.029115
3.6490,300.000000,300.041259
3.6500,300.000000,300.066037
3.6510,300.000000,299.944690
3.6520,300.000000,299.921640
3.6530,300.000000,300.083172
3.6540,300.000000,299.917064
3.6550,300.000000,300.092055
3.6560,300.000000,299.944866
3.6570,300.000000,299.937287
3.6580,300.000000,300.026528
3.6590,300.000000,299.912120
3.6600,300.000000,300.127158
3.6610,300.000000,300.100945
3.6620,300.000000,300.087304
3.6630,300.000000,299.938444
3.6640,300.000000,300.082289
3.6650,300.000000,300.077979
3.6660,300.000000,300.025829
3.6670,300.000000,300.056725
3.6680,300.000000,300.041099
3.6690,300.000000,299.944070
3.6700,300.000000,299.976594
3.6710,300.000000,299.977172
3.6720,300.000000,299.910810
3.6730,300.000000,300.019903
3.6740,300.000000,300.035839
3.6750,300.000000,300.001019
3.6760,300.000000,300.073021
3.6770,300.000000,299.999581
3.6780,300.000000,299.987617
3.6790,300.000000,299.964529
3.6800,300.000000,300.012117
3.6810,300.000000,299.869710
3.6820,300.000000,300.098199
3.6830,300.000000,300.034052
3.6840,300.000000,300.073947
3.6850,300.000000,300.075542
3.6860,300.000000,300.054057
3.6870,300.000000,299.963323
3.6880,300.000000,299.841914
3.6890,300.000000,300.113495
3.6900,300.000000,299.999064
3.6910,300.000000,299.975057
3.6920,300.000000,299.973179
3.6930,300.000000,299.958846
3.6940,300.000000,299.978310
3.6950,300.000000,299.974320
3.6960,300.000000,299.984882
3.6970,300.000000,299.969716
3.6980,300.000000,300.030708
3.6990,300.000000,300.028160
3.7000,300.000000,299.971272
3.7010,300.000000,300.013864
3.7020,300.000000,299.951508
3.7030,300.000000,300.045313
3.7040,300.000000,300.101435
3.7050,300.000000,300.062090
3.7060,300.000000,300.012842
3.7070,300.000000,299.965743
3.7080,300.000000,300.043856
3.7090,300.000000,299.974313
3.7100,300.000000,299.999266
3.7110,300.000000,300.029971
3.7120,300.000000,299.945900
3.7130,300.000000,299.986837
3.7140,300.000000,299.926848
3.7150,300.000000,299.961567
3.7160,300.000000,299.956359
3.7170,300.000000,300.042820
3.7180,300.000000,299.996791
3.7190,300.000000,299.958413
3.7200,300.000000,299.977177
3.7210,300.000000,300.055191
3.7220,300.000000,299.931379
3.7230,300.000000,299.973645
3.7240,300.000000,299.964681
3.7250,300.000000,300.026386
3.7260,300.000000,300.023328
3.7270,300.000000,300.006704
3.7280,300.000000,300.005777
3.7290,300.000000,299.937035
3.7300,300.000000,299.951181
3.7310,300.000000,300.020902
3.7320,300.000000,299.913080
3.7330,300.000000,299.968326
3.7340,300.000000,300.026722
3.7350,300.000000,299.988406
3.7360,300.000000,299.944547
3.7370,300.000000,300.017426
3.7380,300.000000,299.949796
3.7390,300.000000,299.994180
3.7400,300.000000,299.958731
3.7410,300.000000,299.929439
3.7420,300.000000,300.003275
3.7430,300.000000,300.074085
3.7440,300.000000,300.073487
3.7450,300.000000,300.054137
3.7460,300.001832,300.054064
3.7470,300.002231,300.053706
3.7480,300.002705,300.001618
3.7490,300.003263,299.944436
3.7500,300.003916,300.009454
3.7510,300.004677,300.042652
3.7520,300.005558,300.034077
3.7530,300.006571,299.999231
3.7540,300.007730,300.002718
3.7550,300.009049,299.916123
3.7560,300.010540,300.066493
3.7570,300.012215,299.987296
3.7580,300.014086,299.893875
3.7590,300.016162,300.000041
3.7600,300.018452,300.019324
3.7610,300.020961,300.050840
3.7620,300.023693,300.028668
3.7630,300.026647,300.010783
3.7640,300.029820,300.019158
3.7650,300.033204,300.050063
3.7660,300.036788,300.043422
3.7670,300.040555,300.153123
3.7680,300.044486,300.036585
3.7690,300.048554,300.012972
3.7700,300.052729,300.103667
3.7710,300.056978,300.047536
3.7720,300.061263,300.091658
3.7730,300.065541,300.041593
3.7740,300.069768,300.083157
3.7750,300.073897,300.113571
3.7760,300.077880,300.126721
3.7770,300.081669,300.100064
3.7780,300.085214,299.966173
3.7790,300.088471,300.003068
3.7800,300.091393,300.102903
3.7810,300.093941,300.023608
3.7820,300.096079,300.049989
3.7830,300.097775,300.155275
3.7840,300.099005,300.081169
3.7850,300.099750,300.087644
3.7860,300.100000,300.095544
3.7870,300.099750,300.172867
3.7880,300.099005,300.170135
3.7890,300.097775,300.217019
3.7900,300.096079,300.135080
3.7910,300.093941,300.162823
3.7920,300.091393,300.040549
3.7930,300.088471,299.997986
3.7940,300.085214,300.092568
3.7950,300.081669,300.048140
3.7960,300.077880,300.138327
3.7970,300.073897,300.034571
3.7980,300.069768,300.023378
3.7990,300.065541,300.040532
3.8000,300.061263,300.055099
3.8010,300.056978,300.060706
3.8020,300.052729,300.067900
3.8030,300.048554,300.127942
3.8040,300.044486,300.001785
3.8050,300.040555,300.100630
3.8060,300.036788,300.086566
3.8070,300.033204,300.061092
3.8080,300.029820,300.059748
3.8090,300.026647,300.006137
3.8100,300.023693,299.949766
3.8110,300.020961,300.029558
3.8120,300.018452,299.978527
3.8130,300.016162,300.024631
3.8140,300.014086,299.974661
3.8150,300.012215,300.030470
3.8160,300.010540,300.040082
3.8170,300.009049,300.034541
3.8180,300.007730,300.054103
3.8190,300.006571,299.995161
3.8200,300.005558,300.051038
3.8210,300.004677,299.987776
3.8220,300.003916,299.983796
3.8230,300.003263,300.018934
3.8240,300.002705,300.082650
3.8250,300.002231,300.007386
3.8260,300.000000,300.059453
3.8270,300.000000,299.961366
3.8280,300.000000,299.913212
3.8290,300.000000,299.977154
3.8300,300.000000,299.992581
3.8310,300.000000,300.038732
3.8320,300.000000,299.971781
3.8330,300.000000,300.059623
3.8340,300.000000,300.001088
3.8350,300.000000,299.963365
3.8360,300.000000,299.987606
3.8370,300.000000,299.926035
3.8380,300.000000,299.971842
3.8390,300.000000,299.979785
3.8400,300.000000,300.004522
3.8410,300.000000,299.986389
3.8420,300.000000,300.029868
3.8430,300.000000,299.930572
3.8440,300.000000,300.068997
3.8450,300.000000,300.013615
3.8460,300.000000,300.051886
3.8470,299.979209,300.042103
3.8480,299.959326,299.974933
3.8490,299.941221,299.985350
3.8500,299.925686,299.938220
3.8510,299.913397,299.917634
3.8520,299.904894,299.863201
3.8530,299.900548,299.939241
3.8540,299.918863,299.899746
3.8550,299.939591,299.983747
3.8560,299.975574,299.895130
3.8570,300.031085,299.979575
3.8580,300.110235,300.037674
3.8590,300.215702,300.258176
3.8600,300.347088,300.371192
3.8610,300.499352,300.422876
3.8620,300.641180,300.604930
3.8630,300.778801,300.732447
3.8640,300.894839,300.959367
3.8650,300.972604,301.047090
3.8660,301.000000,300.989659
3.8670,300.972604,300.879371
3.8680,300.894839,300.801551
3.8690,300.778801,300.844478
3.8700,300.641180,300.696884
3.8710,300.499352,300.564964
3.8720,300.367879,300.343756
3.8730,300.256376,300.131199
3.8740,300.169013,300.168331
3.8750,300.105399,300.054764
3.8760,300.062177,300.125448
3.8770,300.034697,300.046517
3.8780,300.000000,299.991891
3.8790,300.000000,299.967655
3.8800,300.000000,300.060736
3.8810,300.000000,299.963960
3.8820,300.000000,299.935967
3.8830,300.000000,300.013734
3.8840,300.000000,300.066922
3.8850,300.000000,300.095514
3.8860,299.850000,299.783672
3.8870,299.870894,299.944024
3.8880,299.888877,299.890851
3.8890,299.904356,299.944262
3.8900,299.917678,299.839548
3.8910,299.929145,299.896989
3.8920,299.939015,299.952844
3.8930,299.947509,299.924518
3.8940,299.954821,299.922868
3.8950,299.961114,299.917264
3.8960,299.966530,299.940843
3.8970,299.971193,299.949156
3.8980,299.975205,299.899871
3.8990,299.978659,299.937573
3.9000,299.981632,300.004248
3.9010,299.984190,299.976657
3.9020,299.986392,300.015698
3.9030,299.988288,299.988978
3.9040,299.989919,299.973140
3.9050,299.991323,300.055215
3.9060,300.000000,300.043881
3.9070,300.000000,300.003427
3.9080,300.000000,300.043156
3.9090,300.000000,300.029813
3.9100,300.000000,299.963954
3.9110,300.000000,299.994604
3.9120,300.000000,299.999575
3.9130,300.000000,300.000674
3.9140,300.000000,300.061362
3.9150,300.000000,300.004603
3.9160,300.000000,300.006176
3.9170,300.000000,299.921813
3.9180,300.000000,300.113184
3.9190,300.000000,299.921641
3.9200,300.000000,299.964555
3.9210,300.000000,299.972836
3.9220,300.000000,299.988119
3.9230,300.000000,299.964391
3.9240,300.000000,299.930027
3.9250,300.000000,300.070965
3.9260,300.000000,299.985195
3.9270,300.000000,299.902108
3.9280,300.000000,299.989343
3.9290,300.000000,300.020243
3.9300,300.000000,299.912008
3.9310,300.000000,300.016500
3.9320,300.000000,299.995726
3.9330,300.000000,299.931973
3.9340,300.000000,299.986898
3.9350,300.000000,300.052872
3.9360,300.000000,299.975341
3.9370,300.000000,299.950405
3.9380,300.000000,299.938573
3.9390,300.000000,300.075975
3.9400,300.000000,299.980958
3.9410,300.000000,299.985640
3.9420,300.000000,300.047083
3.9430,300.000000,300.036034
3.9440,300.000000,299.941335
3.9450,300.000000,300.021379
3.9460,300.005495,299.991235
3.9470,300.006069,300.072278
3.9480,300.006694,299.951960
3.9490,300.007375,300.044277
3.9500,300.008116,299.901039
3.9510,300.008919,300.026100
3.9520,300.009789,300.027660
3.9530,300.010731,299.940399
3.9540,300.011749,300.026847
3.9550,300.012848,299.977345
3.9560,300.014031,299.876369
3.9570,300.015305,300.004700
3.9580,300.016673,299.955320
3.9590,300.018141,300.049100
3.9600,300.019713,300.075802
3.9610,300.021395,299.997473
3.9620,300.023191,299.970973
3.9630,300.025107,300.030436
3.9640,300.027147,300.073198
3.9650,300.029317,300.009232
3.9660,300.031620,300.063841
3.9670,300.034061,300.085312
3.9680,300.036645,300.094837
3.9690,300.039376,300.054829
3.9700,300.042258,299.946216
3.9710,300.045293,300.014423
3.9720,300.048486,300.016281
3.9730,300.051840,300.030062
3.9740,300.055356,299.897555
3.9750,300.059037,299.989034
3.9760,300.062883,300.024619
3.9770,300.066897,300.062617
3.9780,300.071078,300.162023
3.9790,300.075426,300.091936
3.9800,300.079940,300.019789
3.9810,300.084619,300.038903
3.9820,300.089459,300.056781
3.9830,300.094458,300.080623
3.9840,300.099612,300.119450
3.9850,300.104916,300.067196
3.9860,300.110364,300.107867
3.9870,300.115950,300.111536
3.9880,300.121666,300.139661
3.9890,300.127505,300.102599
3.9900,300.133457,300.084391
3.9910,300.139513,300.087322
3.9920,300.145661,300.142656
3.9930,300.151890,300.088539
3.9940,300.158188,300.163190
3.9950,300.164541,300.151873
3.9960,300.170935,300.086413
3.9970,300.177356,300.212024
3.9980,300.183788,300.164891
3.9990,300.190215,300.139550
4.0000,300.196622,300.276885
4.0010,300.202990,300.197297
4.0020,300.209303,300.227646
4.0030,300.215542,300.221133
4.0040,300.221691,300.301379
4.0050,300.227729,300.325291
4.0060,300.233640,300.254090
4.0070,300.239405,300.247596
4.0080,300.245006,300.291886
4.0090,300.250424,300.220788
4.0100,300.255643,300.256301
4.0110,300.260645,300.210126
4.0120,300.265412,300.336482
4.0130,300.269929,300.296200
4.0140,300.274179,300.332398
4.0150,300.278149,300.221664
4.0160,300.281824,300.296228
4.0170,300.285191,300.278134
4.0180,300.288237,300.279670
4.0190,300.290952,300.355406
4.0200,300.293325,300.235515
4.0210,300.295349,300.259013
4.0220,300.297015,300.269784
4.0230,300.298317,300.229977
4.0240,300.299251,300.206270
4.0250,300.299813,300.298884
4.0260,300.300000,300.343751
4.0270,300.299813,300.292312
4.0280,300.299251,300.257537
4.0290,300.298317,300.352564
4.0300,300.297015,300.227588
4.0310,300.295349,300.183996
4.0320,300.293325,300.192597
4.0330,300.290952,300.340094
4.0340,300.288237,300.246164
4.0350,300.285191,300.315850
4.0360,300.281824,300.310804
4.0370,300.278149,300.152293
4.0380,300.274179,300.252421
4.0390,300.269929,300.289233
4.0400,300.265412,300.198447
4.0410,300.260645,300.189142
4.0420,300.255643,300.279256
4.0430,300.250424,300.193444
4.0440,300.245006,300.264974
4.0450,300.239405,300.283596
4.0460,300.233640,300.283567
4.0470,300.227729,300.270692
4.0480,300.221691,300.283912
4.0490,300.215542,300.157690
4.0500,300.209303,300.279991
4.0510,300.202990,300.157386
4.0520,300.196622,300.117016
4.0530,300.190215,300.213886
4.0540,300.183788,300.181871
4.0550,300.177356,300.058150
4.0560,300.170935,300.181559
4.0570,300.164541,300.148457
4.0580,300.158188,300.133936
4.0590,300.151890,300.107736
4.0600,300.145661,300.196860
4.0610,300.139513,300.210534
4.0620,300.133457,300.163244
4.0630,300.127505,300.066859
4.0640,300.121666,300.065051
4.0650,300.115950,300.080112
4.0660,300.110364,300.162944
4.0670,300.104916,300.090272
4.0680,300.099612,300.127711
4.0690,300.094458,300.056158
4.0700,300.089459,300.144693
4.0710,300.084619,300.005881
4.0720,300.079940,300.042180
4.0730,300.075426,300.032431
4.0740,300.071078,300.071300
4.0750,300.066897,300.049827
4.0760,300.062883,300.102803
4.0770,300.059037,300.092512
4.0780,300.055356,299.993344
4.0790,300.051840,300.032530
4.0800,300.048486,300.032731
4.0810,300.045293,300.009007
4.0820,300.042258,299.961493
4.0830,300.039376,300.039016
4.0840,300.036645,300.083751
4.0850,300.034061,300.048049
4.0860,300.031620,300.051821
4.0870,300.029317,300.101442
4.0880,300.027147,299.979417
4.0890,300.025107,299.975655
4.0900,300.023191,299.985807
4.0910,300.021395,300.053126
4.0920,300.019713,300.036691
4.0930,300.018141,299.999082
4.0940,300.016673,300.052940
4.0950,300.015305,299.932731
4.0960,300.014031,299.957590
4.0970,300.012848,299.998483
4.0980,300.011749,299.973384
4.0990,300.010731,300.030459
4.1000,300.009789,300.079676
4.1010,300.008919,299.993915
4.1020,300.008116,300.023721
4.1030,300.007375,300.053245
4.1040,300.006694,300.047201
4.1050,300.006069,300.097773
4.1060,300.000000,300.022974
4.1070,300.000000,300.001917
4.1080,300.000000,299.946209
4.1090,300.000000,300.006644
4.1100,300.000000,299.936978
4.1110,300.000000,299.928717
4.1120,300.000000,299.991698
4.1130,300.000000,299.949981
4.1140,300.000000,299.842603
4.1150,300.000000,300.078652
4.1160,300.000000,299.890832
4.1170,300.000000,299.953546
4.1180,300.000000,299.911268
4.1190,300.000000,299.963391
4.1200,300.000000,299.960281
4.1210,300.000000,299.954745
4.1220,300.000000,299.989078
4.1230,300.000000,299.945154
4.1240,300.000000,300.027887
4.1250,300.000000,300.023720
4.1260,300.000000,300.004217
4.1270,300.000000,300.025065
4.1280,300.000000,300.045233
4.1290,300.000000,299.917584
4.1300,300.000000,300.062061
4.1310,300.000000,300.059028
4.1320,300.000000,300.012711
4.1330,300.000000,299.948964
4.1340,300.000000,300.068743
4.1350,300.000000,300.017309
