time_s,ecg_clean_mv,ecg_noisy_mv
0.0000,300.000000,300.002089
0.0010,300.000000,299.986772
0.0020,300.000000,299.998851
0.0030,300.000000,300.018714
0.0040,300.000000,300.027160
0.0050,300.000000,300.022656
0.0060,300.000000,300.018996
0.0070,300.000000,300.014489
0.0080,300.000000,299.998478
0.0090,300.000000,300.000678
0.0100,300.000000,299.997278
0.0110,300.000000,300.006464
0.0120,300.000000,299.993942
0.0130,300.000000,299.968640
0.0140,300.000000,299.986858
0.0150,300.000000,299.978976
0.0160,300.000000,299.977225
0.0170,300.000000,299.993141
0.0180,300.000000,300.001947
0.0190,300.000000,300.006713
0.0200,300.000000,299.995377
0.0210,300.000000,300.007046
0.0220,300.000000,300.019214
0.0230,300.000000,300.030270
0.0240,300.000000,300.018752
0.0250,300.000000,300.022855
0.0260,300.000000,300.012857
0.0270,300.000000,300.009306
0.0280,300.000000,300.025157
0.0290,300.001832,300.027039
0.0300,300.002231,300.007164
0.0310,300.002705,300.012401
0.0320,300.003263,300.001153
0.0330,300.003916,299.987503
0.0340,300.004677,299.995676
0.0350,300.005558,300.007532
0.0360,300.006571,299.993974
0.0370,300.007730,300.014167
0.0380,300.009049,299.978255
0.0390,300.010540,300.019926
0.0400,300.012215,300.020621
0.0410,300.014086,300.025000
0.0420,300.016162,300.036747
0.0430,300.018452,300.022856
0.0440,300.020961,300.046073
0.0450,300.023693,300.055740
0.0460,300.026647,300.069111
0.0470,300.029820,300.049669
0.0480,300.033204,300.045915
0.0490,300.036788,300.047179
0.0500,300.040555,300.059126
0.0510,300.044486,300.051197
0.0520,300.048554,300.041292
0.0530,300.052729,300.051661
0.0540,300.056978,300.049096
0.0550,300.061263,300.061305
0.0560,300.065541,300.050042
0.0570,300.069768,300.061042
0.0580,300.073897,300.069139
0.0590,300.077880,300.068172
0.0600,300.081669,300.095925
0.0610,300.085214,300.105488
0.0620,300.088471,300.111948
0.0630,300.091393,300.117085
0.0640,300.093941,300.110854
0.0650,300.096079,300.124106
0.0660,300.097775,300.125790
0.0670,300.099005,300.119771
0.0680,300.099750,300.122689
0.0690,300.100000,300.123204
0.0700,300.099750,300.131783
0.0710,300.099005,300.107929
0.0720,300.097775,300.102141
0.0730,300.096079,300.092887
0.0740,300.093941,300.069653
0.0750,300.091393,300.085236
0.0760,300.088471,300.084347
0.0770,300.085214,300.108149
0.0780,300.081669,300.082659
0.0790,300.077880,300.089572
0.0800,300.073897,300.088594
0.0810,300.069768,300.079492
0.0820,300.065541,300.104143
0.0830,300.061263,300.100568
0.0840,300.056978,300.099702
0.0850,300.052729,300.079615
0.0860,300.048554,300.097769
0.0870,300.044486,300.063001
0.0880,300.040555,300.074720
0.0890,300.036788,300.081600
0.0900,300.033204,300.040212
0.0910,300.029820,300.035077
0.0920,300.026647,300.033175
0.0930,300.023693,300.019952
0.0940,300.020961,300.004094
0.0950,300.018452,300.016985
0.0960,300.016162,300.004552
0.0970,300.014086,300.020862
0.0980,300.012215,300.009672
0.0990,300.010540,300.038452
0.1000,300.009049,300.019997
0.1010,300.007730,300.029656
0.1020,300.006571,300.045615
0.1030,300.005558,300.028768
0.1040,300.004677,300.045498
0.1050,300.003916,300.056699
0.1060,300.003263,300.026107
0.1070,300.002705,300.040816
0.1080,300.002231,300.036856
0.1090,300.000000,300.034454
0.1100,300.000000,300.008272
0.1110,300.000000,300.001443
0.1120,300.000000,300.014477
0.1130,300.000000,300.007989
0.1140,300.000000,300.004869
0.1150,300.000000,300.005036
0.1160,300.000000,299.995935
0.1170,300.000000,300.008085
0.1180,300.000000,300.013303
0.1190,300.000000,300.008990
0.1200,300.000000,300.041157
0.1210,300.000000,300.033603
0.1220,300.000000,300.022713
0.1230,300.000000,300.045801
0.1240,300.000000,300.032515
0.1250,300.000000,300.051297
0.1260,300.000000,300.054218
0.1270,300.000000,300.031770
0.1280,300.000000,300.045371
0.1290,300.000000,300.034475
0.1300,299.979209,300.011781
0.1310,299.959326,299.996650
0.1320,299.941221,299.951733
0.1330,299.925686,299.926874
0.1340,299.913397,299.910572
0.1350,299.904894,299.902012
0.1360,299.900548,299.906216
0.1370,299.918863,299.931740
0.1380,299.939591,299.956432
0.1390,299.975574,300.003680
0.1400,300.031085,300.057413
0.1410,300.110235,300.157333
0.1420,300.215702,300.251378
0.1430,300.347088,300.417222
0.1440,300.499352,300.551565
0.1450,300.641180,300.679729
0.1460,300.778801,300.814417
0.1470,300.894839,300.943332
0.1480,300.972604,301.009797
0.1490,301.000000,301.041176
0.1500,300.972604,301.005377
0.1510,300.894839,300.916154
0.1520,300.778801,300.786984
0.1530,300.641180,300.638442
0.1540,300.499352,300.504640
0.1550,300.367879,300.385401
0.1560,300.256376,300.268637
0.1570,300.169013,300.169700
0.1580,300.105399,300.124883
0.1590,300.062177,300.089541
0.1600,300.034697,300.055733
0.1610,300.000000,300.037775
0.1620,300.000000,300.042579
0.1630,300.000000,300.035174
0.1640,300.000000,300.053206
0.1650,300.000000,300.056398
0.1660,300.000000,300.060824
0.1670,300.000000,300.057874
0.1680,300.000000,300.029317
0.1690,299.850000,299.878323
0.1700,299.870894,299.907747
0.1710,299.888877,299.919720
0.1720,299.904356,299.929818
0.1730,299.917678,299.972275
0.1740,299.929145,299.948265
0.1750,299.939015,299.962985
0.1760,299.947509,299.970825
0.1770,299.954821,299.978133
0.1780,299.961114,299.979366
0.1790,299.966530,300.001282
0.1800,299.971193,299.996989
0.1810,299.975205,300.012723
0.1820,299.978659,300.019449
0.1830,299.981632,300.032700
0.1840,299.984190,300.060609
0.1850,299.986392,300.022152
0.1860,299.988288,300.048785
0.1870,299.989919,300.024767
0.1880,299.991323,300.033336
0.1890,300.000000,300.052227
0.1900,300.000000,300.035981
0.1910,300.000000,300.018561
0.1920,300.000000,300.016791
0.1930,300.000000,300.026497
0.1940,300.000000,300.009737
0.1950,300.000000,300.018407
0.1960,300.000000,300.017857
0.1970,300.000000,300.013907
0.1980,300.000000,300.046468
0.1990,300.000000,300.037123
0.2000,300.000000,300.016893
0.2010,300.000000,300.045369
0.2020,300.000000,300.042642
0.2030,300.000000,300.062389
0.2040,300.000000,300.048960
0.2050,300.000000,300.056897
0.2060,300.000000,300.062295
0.2070,300.000000,300.063242
0.2080,300.000000,300.038336
0.2090,300.000000,300.041598
0.2100,300.000000,300.034193
0.2110,300.000000,300.026408
0.2120,300.000000,300.045200
0.2130,300.000000,300.027349
0.2140,300.000000,300.008029
0.2150,300.000000,300.029017
0.2160,300.000000,300.042217
0.2170,300.000000,300.034340
0.2180,300.000000,300.013425
0.2190,300.000000,300.029530
0.2200,300.000000,300.053401
0.2210,300.000000,300.040014
0.2220,300.000000,300.057282
0.2230,300.000000,300.065193
0.2240,300.000000,300.051197
0.2250,300.000000,300.061028
0.2260,300.000000,300.028409
0.2270,300.000000,300.047915
0.2280,300.000000,300.051387
0.2290,300.005495,300.041531
0.2300,300.006069,300.064905
0.2310,300.006694,300.028902
0.2320,300.007375,300.034086
0.2330,300.008116,300.036287
0.2340,300.008919,300.047532
0.2350,300.009789,300.018829
0.2360,300.010731,300.046917
0.2370,300.011749,300.039424
0.2380,300.012848,300.035206
0.2390,300.014031,300.056578
0.2400,300.015305,300.061578
0.2410,300.016673,300.061310
0.2420,300.018141,300.075230
0.2430,300.019713,300.076853
0.2440,300.021395,300.086540
0.2450,300.023191,300.094977
0.2460,300.025107,300.105329
0.2470,300.027147,300.076466
0.2480,300.029317,300.108095
0.2490,300.031620,300.064148
0.2500,300.034061,300.078587
0.2510,300.036645,300.082568
0.2520,300.039376,300.076825
0.2530,300.042258,300.066421
0.2540,300.045293,300.070937
0.2550,300.048486,300.070477
0.2560,300.051840,300.074021
0.2570,300.055356,300.094942
0.2580,300.059037,300.098297
0.2590,300.062883,300.097394
0.2600,300.066897,300.123688
0.2610,300.071078,300.128301
0.2620,300.075426,300.143455
0.2630,300.079940,300.150736
0.2640,300.084619,300.143843
0.2650,300.089459,300.152524
0.2660,300.094458,300.169793
0.2670,300.099612,300.170911
0.2680,300.104916,300.165651
0.2690,300.110364,300.167080
0.2700,300.115950,300.178262
0.2710,300.121666,300.159279
0.2720,300.127505,300.171103
0.2730,300.133457,300.165311
0.2740,300.139513,300.168544
0.2750,300.145661,300.187051
0.2760,300.151890,300.191698
0.2770,300.158188,300.200890
0.2780,300.164541,300.216760
0.2790,300.170935,300.216057
0.2800,300.177356,300.235441
0.2810,300.183788,300.238303
0.2820,300.190215,300.256823
0.2830,300.196622,300.263283
0.2840,300.202990,300.274935
0.2850,300.209303,300.287380
0.2860,300.215542,300.278679
0.2870,300.221691,300.311264
0.2880,300.227729,300.282066
0.2890,300.233640,300.280491
0.2900,300.239405,300.303970
0.2910,300.245006,300.299897
0.2920,300.250424,300.298236
0.2930,300.255643,300.299243
0.2940,300.260645,300.295169
0.2950,300.265412,300.290278
0.2960,300.269929,300.305675
0.2970,300.274179,300.305407
0.2980,300.278149,300.330495
0.2990,300.281824,300.328693
0.3000,300.285191,300.331626
0.3010,300.288237,300.346064
0.3020,300.290952,300.361867
0.3030,300.293325,300.359069
0.3040,300.295349,300.361518
0.3050,300.297015,300.374991
0.3060,300.298317,300.375497
0.3070,300.299251,300.366240
0.3080,300.299813,300.362905
0.3090,300.300000,300.364717
0.3100,300.299813,300.341717
0.3110,300.299251,300.335550
0.3120,300.298317,300.336100
0.3130,300.297015,300.335591
0.3140,300.295349,300.336497
0.3150,300.293325,300.345307
0.3160,300.290952,300.337903
0.3170,300.288237,300.328021
0.3180,300.285191,300.330977
0.3190,300.281824,300.323518
0.3200,300.278149,300.336032
0.3210,300.274179,300.335708
0.3220,300.269929,300.343314
0.3230,300.265412,300.331890
0.3240,300.260645,300.343596
0.3250,300.255643,300.349875
0.3260,300.250424,300.327429
0.3270,300.245006,300.324441
0.3280,300.239405,300.317467
0.3290,300.233640,300.295379
0.3300,300.227729,300.289707
0.3310,300.221691,300.275540
0.3320,300.215542,300.264833
0.3330,300.209303,300.245628
0.3340,300.202990,300.244616
0.3350,300.196622,300.242169
0.3360,300.190215,300.246439
0.3370,300.183788,300.238099
0.3380,300.177356,300.248195
0.3390,300.170935,300.218310
0.3400,300.164541,300.234658
0.3410,300.158188,300.227760
0.3420,300.151890,300.247267
0.3430,300.145661,300.215647
0.3440,300.139513,300.212190
0.3450,300.133457,300.209681
0.3460,300.127505,300.187669
0.3470,300.121666,300.195135
0.3480,300.115950,300.182824
0.3490,300.110364,300.180921
0.3500,300.104916,300.171370
0.3510,300.099612,300.175394
0.3520,300.094458,300.155571
0.3530,300.089459,300.131037
0.3540,300.084619,300.120304
0.3550,300.079940,300.128713
0.3560,300.075426,300.107219
0.3570,300.071078,300.137392
0.3580,300.066897,300.131278
0.3590,300.062883,300.116516
0.3600,300.059037,300.106572
0.3610,300.055356,300.139904
0.3620,300.051840,300.127441
0.3630,300.048486,300.142197
0.3640,300.045293,300.113684
0.3650,300.042258,300.121740
0.3660,300.039376,300.124087
0.3670,300.036645,300.119094
0.3680,300.034061,300.107276
0.3690,300.031620,300.110150
0.3700,300.029317,300.084922
0.3710,300.027147,300.085986
0.3720,300.025107,300.081158
0.3730,300.023191,300.078919
0.3740,300.021395,300.076414
0.3750,300.019713,300.055551
0.3760,300.018141,300.051023
0.3770,300.016673,300.080673
0.3780,300.015305,300.074436
0.3790,300.014031,300.068089
0.3800,300.012848,300.096242
0.3810,300.011749,300.087128
0.3820,300.010731,300.102481
0.3830,300.009789,300.095005
0.3840,300.008919,300.117066
0.3850,300.008116,300.114347
0.3860,300.007375,300.092743
0.3870,300.006694,300.101585
0.3880,300.006069,300.093431
0.3890,300.000000,300.089178
0.3900,300.000000,300.059820
0.3910,300.000000,300.070307
0.3920,300.000000,300.068613
0.3930,300.000000,300.036174
0.3940,300.000000,300.039245
0.3950,300.000000,300.029864
0.3960,300.000000,300.048698
0.3970,300.000000,300.061565
0.3980,300.000000,300.073995
0.3990,300.000000,300.065444
0.4000,300.000000,300.087326
0.4010,300.000000,300.063575
0.4020,300.000000,300.066074
0.4030,300.000000,300.087133
0.4040,300.000000,300.094526
0.4050,300.000000,300.091493
0.4060,300.000000,300.070322
0.4070,300.000000,300.087419
0.4080,300.000000,300.070997
0.4090,300.000000,300.085318
0.4100,300.000000,300.076261
0.4110,300.000000,300.057171
0.4120,300.000000,300.056010
0.4130,300.000000,300.046287
0.4140,300.000000,300.053565
0.4150,300.000000,300.062919
0.4160,300.000000,300.044643
0.4170,300.000000,300.062535
0.4180,300.000000,300.056770
0.4190,300.000000,300.059873
0.4200,300.000000,300.073065
0.4210,300.000000,300.070116
0.4220,300.000000,300.080660
0.4230,300.000000,300.078796
0.4240,300.000000,300.113415
0.4250,300.000000,300.095252
0.4260,300.000000,300.087075
0.4270,300.000000,300.093524
0.4280,300.000000,300.085988
0.4290,300.000000,300.079478
0.4300,300.000000,300.081801
0.4310,300.000000,300.077205
0.4320,300.000000,300.058901
0.4330,300.000000,300.054174
0.4340,300.000000,300.054492
0.4350,300.000000,300.033395
0.4360,300.000000,300.042392
0.4370,300.000000,300.074204
0.4380,300.000000,300.081560
0.4390,300.000000,300.068346
0.4400,300.000000,300.082932
0.4410,300.000000,300.086609
0.4420,300.000000,300.120010
0.4430,300.000000,300.104991
0.4440,300.000000,300.095507
0.4450,300.000000,300.088358
0.4460,300.000000,300.081019
0.4470,300.000000,300.096427
0.4480,300.000000,300.082552
0.4490,300.000000,300.070466
0.4500,300.000000,300.072191
0.4510,300.000000,300.061809
0.4520,300.000000,300.084069
0.4530,300.000000,300.071737
0.4540,300.000000,300.060148
0.4550,300.000000,300.074195
0.4560,300.000000,300.061296
0.4570,300.000000,300.054897
0.4580,300.000000,300.083313
0.4590,300.000000,300.079193
0.4600,300.000000,300.069758
0.4610,300.000000,300.084554
0.4620,300.000000,300.083423
0.4630,300.000000,300.082922
0.4640,300.000000,300.108998
0.4650,300.000000,300.119955
0.4660,300.000000,300.086042
0.4670,300.000000,300.102962
0.4680,300.000000,300.086547
0.4690,300.000000,300.082751
0.4700,300.000000,300.075663
0.4710,300.000000,300.066912
0.4720,300.000000,300.070606
0.4730,300.000000,300.057531
0.4740,300.000000,300.065848
0.4750,300.000000,300.061806
0.4760,300.000000,300.061042
0.4770,300.000000,300.057340
0.4780,300.000000,300.065216
0.4790,300.000000,300.084256
0.4800,300.000000,300.088035
0.4810,300.000000,300.079574
0.4820,300.000000,300.096061
0.4830,300.000000,300.107148
0.4840,300.000000,300.085924
0.4850,300.000000,300.109172
0.4860,300.000000,300.096276
0.4870,300.000000,300.105909
0.4880,300.000000,300.088287
0.4890,300.000000,300.072437
0.4900,300.000000,300.068172
0.4910,300.000000,300.078889
0.4920,300.000000,300.075571
0.4930,300.000000,300.059646
0.4940,300.000000,300.072375
0.4950,300.000000,300.048536
0.4960,300.000000,300.065609
0.4970,300.000000,300.057140
0.4980,300.000000,300.067297
0.4990,300.000000,300.080004
0.5000,300.000000,300.077246
0.5010,300.000000,300.088324
0.5020,300.000000,300.107947
0.5030,300.000000,300.096679
0.5040,300.000000,300.113784
0.5050,300.000000,300.095247
0.5060,300.000000,300.111002
0.5070,300.000000,300.117417
0.5080,300.000000,300.073998
0.5090,300.000000,300.085308
0.5100,300.000000,300.093005
0.5110,300.000000,300.079161
0.5120,300.000000,300.079465
0.5130,300.000000,300.065426
0.5140,300.000000,300.069628
0.5150,300.000000,300.066363
0.5160,300.000000,300.080713
0.5170,300.000000,300.074556
0.5180,300.000000,300.079949
0.5190,300.000000,300.078165
0.5200,300.000000,300.083724
0.5210,300.000000,300.090590
0.5220,300.000000,300.104571
0.5230,300.000000,300.100977
0.5240,300.000000,300.111060
0.5250,300.000000,300.130030
0.5260,300.000000,300.117143
0.5270,300.000000,300.102465
0.5280,300.000000,300.113447
0.5290,300.000000,300.091913
0.5300,300.000000,300.069566
0.5310,300.000000,300.073819
0.5320,300.000000,300.059751
0.5330,300.000000,300.070652
0.5340,300.000000,300.071644
0.5350,300.000000,300.087378
0.5360,300.000000,300.074994
0.5370,300.000000,300.072507
0.5380,300.000000,300.087549
0.5390,300.000000,300.062851
0.5400,300.000000,300.093631
0.5410,300.000000,300.105295
0.5420,300.000000,300.088508
0.5430,300.000000,300.119287
0.5440,300.000000,300.114206
0.5450,300.000000,300.107778
0.5460,300.000000,300.117411
0.5470,300.000000,300.131080
0.5480,300.000000,300.105897
0.5490,300.000000,300.101116
0.5500,300.000000,300.087989
0.5510,300.000000,300.078034
0.5520,300.000000,300.089390
0.5530,300.000000,300.068230
0.5540,300.000000,300.074795
0.5550,300.000000,300.068453
0.5560,300.000000,300.079127
0.5570,300.000000,300.080643
0.5580,300.000000,300.092235
0.5590,300.000000,300.082463
0.5600,300.000000,300.091173
0.5610,300.000000,300.090392
0.5620,300.000000,300.101440
0.5630,300.000000,300.114208
0.5640,300.000000,300.120972
0.5650,300.000000,300.105287
0.5660,300.000000,300.122352
0.5670,300.000000,300.124498
0.5680,300.000000,300.110778
0.5690,300.000000,300.119962
0.5700,300.000000,300.087402
0.5710,300.000000,300.076639
0.5720,300.000000,300.065849
0.5730,300.000000,300.094297
0.5740,300.000000,300.083164
0.5750,300.000000,300.075211
0.5760,300.000000,300.079670
0.5770,300.000000,300.068581
0.5780,300.000000,300.108842
0.5790,300.000000,300.091376
0.5800,300.000000,300.097483
0.5810,300.000000,300.109950
0.5820,300.000000,300.113202
0.5830,300.000000,300.115178
0.5840,300.000000,300.107999
0.5850,300.000000,300.121720
0.5860,300.000000,300.134969
0.5870,300.000000,300.126885
0.5880,300.000000,300.125060
0.5890,300.000000,300.098563
0.5900,300.000000,300.087721
0.5910,300.000000,300.090300
0.5920,300.000000,300.086661
0.5930,300.000000,300.092743
0.5940,300.000000,300.062156
0.5950,300.000000,300.093518
0.5960,300.000000,300.077742
0.5970,300.000000,300.078015
0.5980,300.000000,300.076707
0.5990,300.000000,300.075975
0.6000,300.000000,300.107056
0.6010,300.000000,300.105857
0.6020,300.000000,300.097919
0.6030,300.000000,300.102412
0.6040,300.000000,300.114964
0.6050,300.000000,300.136110
0.6060,300.000000,300.115964
0.6070,300.000000,300.100806
0.6080,300.000000,300.109073
0.6090,300.000000,300.103346
0.6100,300.000000,300.073042
0.6110,300.000000,300.093405
0.6120,300.000000,300.086180
0.6130,300.000000,300.091144
0.6140,300.000000,300.099948
0.6150,300.000000,300.091862
0.6160,300.000000,300.079002
0.6170,300.000000,300.073583
0.6180,300.000000,300.114923
0.6190,300.000000,300.095472
0.6200,300.000000,300.101315
0.6210,300.000000,300.107231
0.6220,300.000000,300.115143
0.6230,300.000000,300.116258
0.6240,300.000000,300.114921
0.6250,300.000000,300.116282
0.6260,300.000000,300.120559
0.6270,300.000000,300.112726
0.6280,300.000000,300.106721
0.6290,300.000000,300.109452
0.6300,300.000000,300.099771
0.6310,300.000000,300.111293
0.6320,300.000000,300.064281
0.6330,300.000000,300.097394
0.6340,300.000000,300.096212
0.6350,300.000000,300.062151
0.6360,300.000000,300.080549
0.6370,300.000000,300.083214
0.6380,300.000000,300.077390
0.6390,300.000000,300.089374
0.6400,300.000000,300.092338
0.6410,300.000000,300.127257
0.6420,300.000000,300.124778
0.6430,300.000000,300.132672
0.6440,300.000000,300.130124
0.6450,300.000000,300.112706
0.6460,300.000000,300.117883
0.6470,300.000000,300.125291
0.6480,300.000000,300.103860
0.6490,300.000000,300.117746
0.6500,300.000000,300.102141
0.6510,300.000000,300.094725
0.6520,300.000000,300.100116
0.6530,300.000000,300.093133
0.6540,300.000000,300.082348
0.6550,300.000000,300.096680
0.6560,300.000000,300.075363
0.6570,300.000000,300.095281
0.6580,300.000000,300.099585
0.6590,300.000000,300.096241
0.6600,300.000000,300.108885
0.6610,300.000000,300.099400
0.6620,300.000000,300.126833
0.6630,300.000000,300.120275
0.6640,300.000000,300.119843
0.6650,300.000000,300.136646
0.6660,300.000000,300.118239
0.6670,300.000000,300.108462
0.6680,300.000000,300.102661
0.6690,300.000000,300.118817
0.6700,300.000000,300.093877
0.6710,300.000000,300.118153
0.6720,300.000000,300.074315
0.6730,300.000000,300.107778
0.6740,300.000000,300.090187
0.6750,300.000000,300.086235
0.6760,300.000000,300.082835
0.6770,300.000000,300.095219
0.6780,300.000000,300.095379
0.6790,300.000000,300.112467
0.6800,300.000000,300.108859
0.6810,300.000000,300.115502
0.6820,300.000000,300.116041
0.6830,300.000000,300.123634
0.6840,300.000000,300.130224
0.6850,300.000000,300.111124
0.6860,300.000000,300.113866
0.6870,300.000000,300.132041
0.6880,300.000000,300.121993
0.6890,300.000000,300.112970
0.6900,300.000000,300.108914
0.6910,300.000000,300.106125
0.6920,300.000000,300.091776
0.6930,300.000000,300.085066
0.6940,300.000000,300.092066
0.6950,300.000000,300.079444
0.6960,300.000000,300.094388
0.6970,300.000000,300.076219
0.6980,300.000000,300.108059
0.6990,300.000000,300.108167
0.7000,300.000000,300.112280
0.7010,300.000000,300.125825
0.7020,300.000000,300.138326
0.7030,300.000000,300.136337
0.7040,300.000000,300.110722
0.7050,300.000000,300.117411
0.7060,300.000000,300.123076
0.7070,300.000000,300.126841
0.7080,300.000000,300.127428
0.7090,300.000000,300.109515
0.7100,300.000000,300.112555
0.7110,300.000000,300.097049
0.7120,300.000000,300.093008
0.7130,300.000000,300.080727
0.7140,300.000000,300.082815
0.7150,300.000000,300.077646
0.7160,300.000000,300.082477
0.7170,300.000000,300.105708
0.7180,300.000000,300.090196
0.7190,300.000000,300.131683
0.7200,300.000000,300.116566
0.7210,300.000000,300.119754
0.7220,300.000000,300.114991
0.7230,300.000000,300.135095
0.7240,300.000000,300.125269
0.7250,300.000000,300.133317
0.7260,300.000000,300.156810
0.7270,300.000000,300.127500
0.7280,300.000000,300.135620
0.7290,300.000000,300.111612
0.7300,300.000000,300.112205
0.7310,300.000000,300.124173
0.7320,300.000000,300.094711
0.7330,300.000000,300.114771
0.7340,300.000000,300.100973
0.7350,300.000000,300.087382
0.7360,300.000000,300.100400
0.7370,300.000000,300.106731
0.7380,300.000000,300.107738
0.7390,300.000000,300.091482
0.7400,300.000000,300.106182
0.7410,300.000000,300.117247
0.7420,300.000000,300.124642
0.7430,300.000000,300.136106
0.7440,300.000000,300.134605
0.7450,300.000000,300.120541
0.7460,300.000000,300.136805
0.7470,300.000000,300.136355
0.7480,300.000000,300.131510
0.7490,300.000000,300.131231
0.7500,300.000000,300.122668
0.7510,300.000000,300.112827
0.7520,300.000000,300.102044
0.7530,300.000000,300.081797
0.7540,300.000000,300.099948
0.7550,300.000000,300.096835
0.7560,300.000000,300.098538
0.7570,300.000000,300.085981
0.7580,300.000000,300.092447
0.7590,300.000000,300.119449
0.7600,300.000000,300.114786
0.7610,300.000000,300.128261
0.7620,300.000000,300.127388
0.7630,300.000000,300.131911
0.7640,300.000000,300.143920
0.7650,300.000000,300.130439
0.7660,300.000000,300.135664
0.7670,300.000000,300.127322
0.7680,300.000000,300.123257
0.7690,300.000000,300.119017
0.7700,300.000000,300.118232
0.7710,300.000000,300.105124
0.7720,300.000000,300.116975
0.7730,300.000000,300.091128
0.7740,300.000000,300.095446
0.7750,300.000000,300.092019
0.7760,300.000000,300.111945
0.7770,300.000000,300.102362
0.7780,300.000000,300.115220
0.7790,300.000000,300.095701
0.7800,300.000000,300.119487
0.7810,300.000000,300.131972
0.7820,300.000000,300.129553
0.7830,300.000000,300.143888
0.7840,300.000000,300.130980
0.7850,300.000000,300.151303
0.7860,300.000000,300.159298
0.7870,300.000000,300.129918
0.7880,300.000000,300.124744
0.7890,300.000000,300.138235
0.7900,300.000000,300.133394
0.7910,300.000000,300.106266
0.7920,300.000000,300.101794
0.7930,300.000000,300.098830
0.7940,300.000000,300.085438
0.7950,300.000000,300.088793
0.7960,300.000000,300.088993
0.7970,300.000000,300.094273
0.7980,300.000000,300.106104
0.7990,300.000000,300.114443
0.8000,300.000000,300.133861
0.8010,300.000000,300.114627
0.8020,300.000000,300.140104
0.8030,300.000000,300.132619
0.8040,300.000000,300.137179
0.8050,300.000000,300.145474
0.8060,300.000000,300.126593
0.8070,300.000000,300.138877
0.8080,300.000000,300.132366
0.8090,300.000000,300.130123
0.8100,300.000000,300.121982
0.8110,300.000000,300.137535
0.8120,300.000000,300.101101
0.8130,300.000000,300.097816
0.8140,300.000000,300.094125
0.8150,300.000000,300.093894
0.8160,300.000000,300.094124
0.8170,300.000000,300.115300
0.8180,300.000000,300.122110
0.8190,300.000000,300.107843
0.8200,300.000000,300.111477
0.8210,300.000000,300.130765
0.8220,300.000000,300.126173
0.8230,300.000000,300.142519
0.8240,300.000000,300.141129
0.8250,300.000000,300.124990
0.8260,300.000000,300.154712
0.8270,300.000000,300.154423
0.8280,300.000000,300.125980
0.8290,300.000000,300.122723
0.8300,300.000000,300.123346
0.8310,300.000000,300.117719
0.8320,300.000000,300.115451
0.8330,300.000000,300.124610
0.8340,300.000000,300.099964
0.8350,300.000000,300.092838
0.8360,300.000000,300.088073
0.8370,300.000000,300.097464
0.8380,300.000000,300.108932
0.8390,300.000000,300.132850
0.8400,300.000000,300.115974
0.8410,300.000000,300.129633
0.8420,300.000000,300.132871
0.8430,300.000000,300.149408
0.8440,300.000000,300.165698
0.8450,300.000000,300.136163
0.8460,300.000000,300.135662
0.8470,300.000000,300.148221
0.8480,300.000000,300.140237
0.8490,300.000000,300.146373
0.8500,300.000000,300.127627
0.8510,300.000000,300.112077
0.8520,300.000000,300.116064
0.8530,300.000000,300.116881
0.8540,300.000000,300.111220
0.8550,300.000000,300.107171
0.8560,300.000000,300.113805
0.8570,300.000000,300.117733
0.8580,300.000000,300.124347
0.8590,300.000000,300.122649
0.8600,300.001832,300.122563
0.8610,300.002231,300.132341
0.8620,300.002705,300.149048
0.8630,300.003263,300.133856
0.8640,300.003916,300.149265
0.8650,300.004677,300.143444
0.8660,300.005558,300.147625
0.8670,300.006571,300.158354
0.8680,300.007730,300.144273
0.8690,300.009049,300.138628
0.8700,300.010540,300.119934
0.8710,300.012215,300.136547
0.8720,300.014086,300.131892
0.8730,300.016162,300.144779
0.8740,300.018452,300.119574
0.8750,300.020961,300.126431
0.8760,300.023693,300.130500
0.8770,300.026647,300.149632
0.8780,300.029820,300.140558
0.8790,300.033204,300.153316
0.8800,300.036788,300.166425
0.8810,300.040555,300.172215
0.8820,300.044486,300.175445
0.8830,300.048554,300.190398
0.8840,300.052729,300.206264
0.8850,300.056978,300.190545
0.8860,300.061263,300.205499
0.8870,300.065541,300.198659
0.8880,300.069768,300.217467
0.8890,300.073897,300.188892
0.8900,300.077880,300.196390
0.8910,300.081669,300.203413
0.8920,300.085214,300.213319
0.8930,300.088471,300.195890
0.8940,300.091393,300.191129
0.8950,300.093941,300.217114
0.8960,300.096079,300.186991
0.8970,300.097775,300.184071
0.8980,300.099005,300.216165
0.8990,300.099750,300.213116
0.9000,300.100000,300.214405
0.9010,300.099750,300.237681
0.9020,300.099005,300.237916
0.9030,300.097775,300.233082
0.9040,300.096079,300.227114
0.9050,300.093941,300.247532
0.9060,300.091393,300.241832
0.9070,300.088471,300.228624
0.9080,300.085214,300.240450
0.9090,300.081669,300.202210
0.9100,300.077880,300.187735
0.9110,300.073897,300.185955
0.9120,300.069768,300.182762
0.9130,300.065541,300.177047
0.9140,300.061263,300.165129
0.9150,300.056978,300.165846
0.9160,300.052729,300.146587
0.9170,300.048554,300.172251
0.9180,300.044486,300.157395
0.9190,300.040555,300.171081
0.9200,300.036788,300.165794
0.9210,300.033204,300.169576
0.9220,300.029820,300.172942
0.9230,300.026647,300.173019
0.9240,300.023693,300.174900
0.9250,300.020961,300.180056
0.9260,300.018452,300.165286
0.9270,300.016162,300.165325
0.9280,300.014086,300.150880
0.9290,300.012215,300.158776
0.9300,300.010540,300.129799
0.9310,300.009049,300.146944
0.9320,300.007730,300.121682
0.9330,300.006571,300.102234
0.9340,300.005558,300.114011
0.9350,300.004677,300.104103
0.9360,300.003916,300.119580
0.9370,300.003263,300.106876
0.9380,300.002705,300.112849
0.9390,300.002231,300.103558
0.9400,300.000000,300.121920
0.9410,300.000000,300.108425
0.9420,300.000000,300.122441
0.9430,300.000000,300.150349
0.9440,300.000000,300.153483
0.9450,300.000000,300.150899
0.9460,300.000000,300.136035
0.9470,300.000000,300.142426
0.9480,300.000000,300.138481
0.9490,300.000000,300.121397
0.9500,300.000000,300.141873
0.9510,300.000000,300.129470
0.9520,300.000000,300.112950
0.9530,300.000000,300.111041
0.9540,300.000000,300.110053
0.9550,300.000000,300.086610
0.9560,300.000000,300.105572
0.9570,300.000000,300.104101
0.9580,300.000000,300.105366
0.9590,300.000000,300.118183
0.9600,300.000000,300.145187
0.9610,299.979209,300.119044
0.9620,299.959326,300.092652
0.9630,299.941221,300.090445
0.9640,299.925686,300.086052
0.9650,299.913397,300.070031
0.9660,299.904894,300.051934
0.9670,299.900548,300.037715
0.9680,299.918863,300.065092
0.9690,299.939591,300.077230
0.9700,299.975574,300.112084
0.9710,300.031085,300.158847
0.9720,300.110235,300.236599
0.9730,300.215702,300.321827
0.9740,300.347088,300.468931
0.9750,300.499352,300.609050
0.9760,300.641180,300.770666
0.9770,300.778801,300.883515
0.9780,300.894839,301.028261
0.9790,300.972604,301.096253
0.9800,301.000000,301.121367
0.9810,300.972604,301.101858
0.9820,300.894839,301.031334
0.9830,300.778801,300.927196
0.9840,300.641180,300.793433
0.9850,300.499352,300.641648
0.9860,300.367879,300.514720
0.9870,300.256376,300.422071
0.9880,300.169013,300.326166
0.9890,300.105399,300.244094
0.9900,300.062177,300.190736
0.9910,300.034697,300.157925
0.9920,300.000000,300.122616
0.9930,300.000000,300.101856
0.9940,300.000000,300.106698
0.9950,300.000000,300.091634
0.9960,300.000000,300.113319
0.9970,300.000000,300.118666
0.9980,300.000000,300.111814
0.9990,300.000000,300.137988
1.0000,299.850000,299.966197
1.0010,299.870894,299.990911
1.0020,299.888877,300.031384
1.0030,299.904356,300.059539
1.0040,299.917678,300.082096
1.0050,299.929145,300.073139
1.0060,299.939015,300.097430
1.0070,299.947509,300.091937
1.0080,299.954821,300.093507
1.0090,299.961114,300.104812
1.0100,299.966530,300.101759
1.0110,299.971193,300.077977
1.0120,299.975205,300.106967
1.0130,299.978659,300.105055
1.0140,299.981632,300.085154
1.0150,299.984190,300.096970
1.0160,299.986392,300.101156
1.0170,299.988288,300.103581
1.0180,299.989919,300.101549
1.0190,299.991323,300.107337
1.0200,300.000000,300.128676
1.0210,300.000000,300.146861
1.0220,300.000000,300.146166
1.0230,300.000000,300.141469
1.0240,300.000000,300.155754
1.0250,300.000000,300.120551
1.0260,300.000000,300.159565
1.0270,300.000000,300.127860
1.0280,300.000000,300.137227
1.0290,300.000000,300.124099
1.0300,300.000000,300.116188
1.0310,300.000000,300.134582
1.0320,300.000000,300.112740
1.0330,300.000000,300.116475
1.0340,300.000000,300.109719
1.0350,300.000000,300.113997
1.0360,300.000000,300.110992
1.0370,300.000000,300.100252
1.0380,300.000000,300.127487
1.0390,300.000000,300.118179
1.0400,300.000000,300.113748
1.0410,300.000000,300.131229
1.0420,300.000000,300.156110
1.0430,300.000000,300.154045
1.0440,300.000000,300.144913
1.0450,300.000000,300.145901
1.0460,300.000000,300.145214
1.0470,300.000000,300.166372
1.0480,300.000000,300.145014
1.0490,300.000000,300.139935
1.0500,300.000000,300.139771
1.0510,300.000000,300.125690
1.0520,300.000000,300.115150
1.0530,300.000000,300.111367
1.0540,300.000000,300.109787
1.0550,300.000000,300.109165
1.0560,300.000000,300.117805
1.0570,300.000000,300.113902
1.0580,300.000000,300.125146
1.0590,300.000000,300.122600
1.0600,300.005495,300.135881
1.0610,300.006069,300.121879
1.0620,300.006694,300.157237
1.0630,300.007375,300.156655
1.0640,300.008116,300.166762
1.0650,300.008919,300.129613
1.0660,300.009789,300.179361
1.0670,300.010731,300.155193
1.0680,300.011749,300.164274
1.0690,300.012848,300.138327
1.0700,300.014031,300.149866
1.0710,300.015305,300.128307
1.0720,300.016673,300.128406
1.0730,300.018141,300.150836
1.0740,300.019713,300.128529
1.0750,300.021395,300.133322
1.0760,300.023191,300.142632
1.0770,300.025107,300.143653
1.0780,300.027147,300.146672
1.0790,300.029317,300.156570
1.0800,300.031620,300.185445
1.0810,300.034061,300.169464
1.0820,300.036645,300.180217
1.0830,300.039376,300.195875
1.0840,300.042258,300.202153
1.0850,300.045293,300.206988
1.0860,300.048486,300.203726
1.0870,300.051840,300.186426
1.0880,300.055356,300.213288
1.0890,300.059037,300.183601
1.0900,300.062883,300.195762
1.0910,300.066897,300.183031
1.0920,300.071078,300.188543
1.0930,300.075426,300.192400
1.0940,300.079940,300.194003
1.0950,300.084619,300.198712
1.0960,300.089459,300.216453
1.0970,300.094458,300.212694
1.0980,300.099612,300.215299
1.0990,300.104916,300.238263
1.1000,300.110364,300.252148
1.1010,300.115950,300.239746
1.1020,300.121666,300.269290
1.1030,300.127505,300.280594
1.1040,300.133457,300.279401
1.1050,300.139513,300.303170
1.1060,300.145661,300.293082
1.1070,300.151890,300.299228
1.1080,300.158188,300.298115
1.1090,300.164541,300.300780
1.1100,300.170935,300.289876
1.1110,300.177356,300.286679
1.1120,300.183788,300.317881
1.1130,300.190215,300.295469
1.1140,300.196622,300.297590
1.1150,300.202990,300.291358
1.1160,300.209303,300.313793
1.1170,300.215542,300.316031
1.1180,300.221691,300.356253
1.1190,300.227729,300.361544
1.1200,300.233640,300.356653
1.1210,300.239405,300.398002
1.1220,300.245006,300.396469
1.1230,300.250424,300.393244
1.1240,300.255643,300.379555
1.1250,300.260645,300.433436
1.1260,300.265412,300.400415
1.1270,300.269929,300.399530
1.1280,300.274179,300.426032
1.1290,300.278149,300.438594
1.1300,300.281824,300.425529
1.1310,300.285191,300.414508
1.1320,300.288237,300.412282
1.1330,300.290952,300.413154
1.1340,300.293325,300.411737
1.1350,300.295349,300.407999
1.1360,300.297015,300.408868
1.1370,300.298317,300.411338
1.1380,300.299251,300.409776
1.1390,300.299813,300.420640
1.1400,300.300000,300.412878
1.1410,300.299813,300.434811
1.1420,300.299251,300.430915
1.1430,300.298317,300.433249
1.1440,300.297015,300.447615
1.1450,300.295349,300.459041
1.1460,300.293325,300.451294
1.1470,300.290952,300.421183
1.1480,300.288237,300.419844
1.1490,300.285191,300.430518
1.1500,300.281824,300.401730
1.1510,300.278149,300.399444
1.1520,300.274179,300.397637
1.1530,300.269929,300.373768
1.1540,300.265412,300.377138
1.1550,300.260645,300.356988
1.1560,300.255643,300.360282
1.1570,300.250424,300.367105
1.1580,300.245006,300.346973
1.1590,300.239405,300.367271
1.1600,300.233640,300.363074
1.1610,300.227729,300.369054
1.1620,300.221691,300.365293
1.1630,300.215542,300.374960
1.1640,300.209303,300.359161
1.1650,300.202990,300.348268
1.1660,300.196622,300.346426
1.1670,300.190215,300.341376
1.1680,300.183788,300.325567
1.1690,300.177356,300.313463
1.1700,300.170935,300.293423
1.1710,300.164541,300.281226
1.1720,300.158188,300.261887
1.1730,300.151890,300.282673
1.1740,300.145661,300.243654
1.1750,300.139513,300.242023
1.1760,300.133457,300.236676
1.1770,300.127505,300.249683
1.1780,300.121666,300.236355
1.1790,300.115950,300.251626
1.1800,300.110364,300.232993
1.1810,300.104916,300.243234
1.1820,300.099612,300.232346
1.1830,300.094458,300.261406
1.1840,300.089459,300.225904
1.1850,300.084619,300.237000
1.1860,300.079940,300.234566
1.1870,300.075426,300.224994
1.1880,300.071078,300.210213
1.1890,300.066897,300.200994
1.1900,300.062883,300.192518
1.1910,300.059037,300.180565
1.1920,300.055356,300.182400
1.1930,300.051840,300.186907
1.1940,300.048486,300.153014
1.1950,300.045293,300.140701
1.1960,300.042258,300.151440
1.1970,300.039376,300.178060
1.1980,300.036645,300.145901
1.1990,300.034061,300.173300
1.2000,300.031620,300.177405
1.2010,300.029317,300.158949
1.2020,300.027147,300.173561
1.2030,300.025107,300.186519
1.2040,300.023191,300.167348
1.2050,300.021395,300.168265
1.2060,300.019713,300.161802
1.2070,300.018141,300.153037
1.2080,300.016673,300.150778
1.2090,300.015305,300.138066
1.2100,300.014031,300.143170
1.2110,300.012848,300.127743
1.2120,300.011749,300.131085
1.2130,300.010731,300.107723
1.2140,300.009789,300.122785
1.2150,300.008919,300.125939
1.2160,300.008116,300.097819
1.2170,300.007375,300.123574
1.2180,300.006694,300.135830
1.2190,300.006069,300.116382
1.2200,300.000000,300.145292
1.2210,300.000000,300.138912
1.2220,300.000000,300.133223
1.2230,300.000000,300.144115
1.2240,300.000000,300.153072
1.2250,300.000000,300.149202
1.2260,300.000000,300.152826
1.2270,300.000000,300.135365
1.2280,300.000000,300.141815
1.2290,300.000000,300.120382
1.2300,300.000000,300.127201
1.2310,300.000000,300.113067
1.2320,300.000000,300.109149
1.2330,300.000000,300.124414
1.2340,300.000000,300.120098
1.2350,300.000000,300.114270
1.2360,300.000000,300.098207
1.2370,300.000000,300.108779
1.2380,300.000000,300.128470
1.2390,300.000000,300.123304
1.2400,300.000000,300.151232
1.2410,300.000000,300.138124
1.2420,300.000000,300.141657
1.2430,300.000000,300.141041
1.2440,300.000000,300.148280
1.2450,300.000000,300.146369
1.2460,300.000000,300.153966
1.2470,300.000000,300.153581
1.2480,300.000000,300.131700
1.2490,300.000000,300.120642
1.2500,300.000000,300.109381
1.2510,300.000000,300.126612
1.2520,300.000000,300.104892
1.2530,300.000000,300.089941
1.2540,300.000000,300.112484
1.2550,300.000000,300.132518
1.2560,300.000000,300.108474
1.2570,300.000000,300.119729
1.2580,300.000000,300.116555
1.2590,300.000000,300.120290
1.2600,300.000000,300.136618
1.2610,300.000000,300.130672
1.2620,300.000000,300.141791
1.2630,300.000000,300.146726
1.2640,300.000000,300.139635
1.2650,300.000000,300.157182
1.2660,300.000000,300.144499
1.2670,300.000000,300.135817
1.2680,300.000000,300.144280
1.2690,300.000000,300.124321
1.2700,300.000000,300.127372
1.2710,300.000000,300.120784
1.2720,300.000000,300.126124
1.2730,300.000000,300.115552
1.2740,300.000000,300.107679
1.2750,300.000000,300.115092
1.2760,300.000000,300.121760
1.2770,300.000000,300.116240
1.2780,300.000000,300.115154
1.2790,300.000000,300.107471
1.2800,300.000000,300.116082
1.2810,300.000000,300.129825
1.2820,300.000000,300.132320
1.2830,300.000000,300.140933
1.2840,300.000000,300.146173
1.2850,300.000000,300.151844
1.2860,300.000000,300.144826
1.2870,300.000000,300.147517
1.2880,300.000000,300.138834
1.2890,300.000000,300.112821
1.2900,300.000000,300.116963
1.2910,300.000000,300.118696
1.2920,300.000000,300.102426
1.2930,300.000000,300.116058
1.2940,300.000000,300.122486
1.2950,300.000000,300.118348
1.2960,300.000000,300.104965
1.2970,300.000000,300.124807
1.2980,300.000000,300.115771
1.2990,300.000000,300.116449
1.3000,300.000000,300.119825
1.3010,300.000000,300.129074
1.3020,300.000000,300.133751
1.3030,300.000000,300.143721
1.3040,300.000000,300.146422
1.3050,300.000000,300.145784
1.3060,300.000000,300.149102
1.3070,300.000000,300.153756
1.3080,300.000000,300.146879
1.3090,300.000000,300.116916
1.3100,300.000000,300.100003
1.3110,300.000000,300.128663
1.3120,300.000000,300.100032
1.3130,300.000000,300.106986
1.3140,300.000000,300.094648
1.3150,300.000000,300.087307
1.3160,300.000000,300.111677
1.3170,300.000000,300.116650
1.3180,300.000000,300.107674
1.3190,300.000000,300.093060
1.3200,300.000000,300.119644
1.3210,300.000000,300.135160
1.3220,300.000000,300.121983
1.3230,300.000000,300.142986
1.3240,300.000000,300.143795
1.3250,300.000000,300.150674
1.3260,300.000000,300.145052
1.3270,300.000000,300.131239
1.3280,300.000000,300.148465
1.3290,300.000000,300.129292
1.3300,300.000000,300.124378
1.3310,300.000000,300.109091
1.3320,300.000000,300.108369
1.3330,300.000000,300.099482
1.3340,300.000000,300.103713
1.3350,300.000000,300.121533
1.3360,300.000000,300.091628
1.3370,300.000000,300.092005
1.3380,300.000000,300.127229
1.3390,300.000000,300.115951
1.3400,300.000000,300.117486
1.3410,300.000000,300.140707
1.3420,300.000000,300.129779
1.3430,300.000000,300.158471
1.3440,300.000000,300.149782
1.3450,300.000000,300.139053
1.3460,300.000000,300.164477
1.3470,300.000000,300.133957
1.3480,300.000000,300.142960
1.3490,300.000000,300.132907
1.3500,300.000000,300.136701
1.3510,300.000000,300.133068
1.3520,300.000000,300.112147
1.3530,300.000000,300.099817
1.3540,300.000000,300.109060
1.3550,300.000000,300.096653
1.3560,300.000000,300.124491
1.3570,300.000000,300.108512
1.3580,300.000000,300.107867
1.3590,300.000000,300.118890
1.3600,300.000000,300.109701
1.3610,300.000000,300.119584
1.3620,300.000000,300.146827
1.3630,300.000000,300.132626
1.3640,300.000000,300.131514
1.3650,300.000000,300.148276
1.3660,300.000000,300.153734
1.3670,300.000000,300.146173
1.3680,300.000000,300.144466
1.3690,300.000000,300.121308
1.3700,300.000000,300.108424
1.3710,300.000000,300.131421
1.3720,300.000000,300.107551
1.3730,300.000000,300.103791
1.3740,300.000000,300.116686
1.3750,300.000000,300.107933
1.3760,300.000000,300.107853
1.3770,300.000000,300.127730
1.3780,300.000000,300.104014
1.3790,300.000000,300.125248
1.3800,300.000000,300.122664
1.3810,300.000000,300.130905
1.3820,300.000000,300.149023
1.3830,300.000000,300.143185
1.3840,300.000000,300.146274
1.3850,300.000000,300.152539
1.3860,300.000000,300.137129
1.3870,300.000000,300.129489
1.3880,300.000000,300.122951
1.3890,300.000000,300.108103
1.3900,300.000000,300.142091
1.3910,300.000000,300.104259
1.3920,300.000000,300.107445
1.3930,300.000000,300.102407
1.3940,300.000000,300.105351
1.3950,300.000000,300.109397
1.3960,300.000000,300.110765
1.3970,300.000000,300.099112
1.3980,300.000000,300.107637
1.3990,300.000000,300.117651
1.4000,300.000000,300.118459
1.4010,300.000000,300.143141
1.4020,300.000000,300.137493
1.4030,300.000000,300.144297
1.4040,300.000000,300.146358
1.4050,300.000000,300.152383
1.4060,300.000000,300.141419
1.4070,300.000000,300.123740
1.4080,300.000000,300.136220
1.4090,300.000000,300.120073
1.4100,300.000000,300.115060
1.4110,300.000000,300.119968
1.4120,300.000000,300.120851
1.4130,300.000000,300.104195
1.4140,300.000000,300.104168
1.4150,300.000000,300.117062
1.4160,300.000000,300.103364
1.4170,300.000000,300.129752
1.4180,300.000000,300.113753
1.4190,300.000000,300.096003
1.4200,300.000000,300.127262
1.4210,300.000000,300.129658
1.4220,300.000000,300.144257
1.4230,300.000000,300.142453
1.4240,300.000000,300.137114
1.4250,300.000000,300.127171
1.4260,300.000000,300.136282
1.4270,300.000000,300.126962
1.4280,300.000000,300.125174
1.4290,300.000000,300.131226
1.4300,300.000000,300.135795
1.4310,300.000000,300.116798
1.4320,300.000000,300.095252
1.4330,300.000000,300.107168
1.4340,300.000000,300.111783
1.4350,300.000000,300.092675
1.4360,300.000000,300.098346
1.4370,300.000000,300.102609
1.4380,300.000000,300.098972
1.4390,300.000000,300.118814
1.4400,300.000000,300.117236
1.4410,300.000000,300.128755
1.4420,300.000000,300.121194
1.4430,300.000000,300.130053
1.4440,300.000000,300.144426
1.4450,300.000000,300.134386
1.4460,300.000000,300.154339
1.4470,300.000000,300.130165
1.4480,300.000000,300.131917
1.4490,300.000000,300.133353
1.4500,300.000000,300.103596
1.4510,300.000000,300.093924
1.4520,300.000000,300.090632
1.4530,300.000000,300.114022
1.4540,300.000000,300.092969
1.4550,300.000000,300.123023
1.4560,300.000000,300.092709
1.4570,300.000000,300.102969
1.4580,300.000000,300.120901
1.4590,300.000000,300.131047
1.4600,300.000000,300.137713
1.4610,300.000000,300.135293
1.4620,300.000000,300.138956
1.4630,300.000000,300.138996
1.4640,300.000000,300.143626
1.4650,300.000000,300.131239
1.4660,300.000000,300.127521
1.4670,300.000000,300.132758
1.4680,300.000000,300.126595
1.4690,300.000000,300.118119
1.4700,300.000000,300.123365
1.4710,300.000000,300.119703
1.4720,300.000000,300.105388
1.4730,300.000000,300.114784
1.4740,300.000000,300.085680
1.4750,300.000000,300.094110
1.4760,300.000000,300.089786
1.4770,300.000000,300.081058
1.4780,300.000000,300.103250
1.4790,300.000000,300.108363
1.4800,300.000000,300.130823
1.4810,300.000000,300.128105
1.4820,300.000000,300.117058
1.4830,300.000000,300.150193
1.4840,300.000000,300.146631
1.4850,300.000000,300.141148
1.4860,300.000000,300.132010
1.4870,300.000000,300.121767
1.4880,300.000000,300.123142
1.4890,300.000000,300.132103
1.4900,300.000000,300.133807
1.4910,300.000000,300.124140
1.4920,300.000000,300.098170
1.4930,300.000000,300.087364
1.4940,300.000000,300.097054
1.4950,300.000000,300.076908
1.4960,300.000000,300.098729
1.4970,300.000000,300.096787
1.4980,300.000000,300.097953
1.4990,300.000000,300.092167
1.5000,300.000000,300.119356
1.5010,300.000000,300.114998
1.5020,300.000000,300.114126
1.5030,300.000000,300.101452
1.5040,300.000000,300.132665
1.5050,300.000000,300.151566
1.5060,300.000000,300.149402
1.5070,300.000000,300.125301
1.5080,300.000000,300.119350
1.5090,300.000000,300.124408
1.5100,300.000000,300.103480
1.5110,300.000000,300.110225
1.5120,300.000000,300.109216
1.5130,300.000000,300.109323
1.5140,300.000000,300.093135
1.5150,300.000000,300.091044
1.5160,300.000000,300.085202
1.5170,300.000000,300.088477
1.5180,300.000000,300.098828
1.5190,300.000000,300.110265
1.5200,300.000000,300.121830
1.5210,300.000000,300.110765
1.5220,300.000000,300.139221
1.5230,300.000000,300.125929
1.5240,300.000000,300.131189
1.5250,300.000000,300.124832
1.5260,300.000000,300.107004
1.5270,300.000000,300.137167
1.5280,300.000000,300.131192
1.5290,300.000000,300.115356
1.5300,300.000000,300.112580
1.5310,300.000000,300.110810
1.5320,300.000000,300.084371
1.5330,300.000000,300.090202
1.5340,300.000000,300.100514
1.5350,300.000000,300.078970
1.5360,300.000000,300.095348
1.5370,300.000000,300.081608
1.5380,300.000000,300.104182
1.5390,300.000000,300.104657
1.5400,300.000000,300.094962
1.5410,300.000000,300.128861
1.5420,300.000000,300.115362
1.5430,300.000000,300.118949
1.5440,300.000000,300.131818
1.5450,300.000000,300.142196
1.5460,300.000000,300.119492
1.5470,300.000000,300.127345
1.5480,300.000000,300.126510
1.5490,300.000000,300.123496
1.5500,300.000000,300.112068
1.5510,300.000000,300.100371
1.5520,300.000000,300.090108
1.5530,300.000000,300.094739
1.5540,300.000000,300.080233
1.5550,300.000000,300.060680
1.5560,300.000000,300.095156
1.5570,300.000000,300.102588
1.5580,300.000000,300.074261
1.5590,300.000000,300.093286
1.5600,300.000000,300.115672
1.5610,300.000000,300.136153
1.5620,300.000000,300.121278
1.5630,300.000000,300.118132
1.5640,300.000000,300.126340
1.5650,300.000000,300.142813
1.5660,300.000000,300.121543
1.5670,300.000000,300.117086
1.5680,300.000000,300.115742
1.5690,300.000000,300.105377
1.5700,300.000000,300.109872
1.5710,300.000000,300.118628
1.5720,300.000000,300.099952
1.5730,300.000000,300.089689
1.5740,300.000000,300.086369
1.5750,300.000000,300.072592
1.5760,300.000000,300.097949
1.5770,300.000000,300.091095
1.5780,300.000000,300.094408
1.5790,300.000000,300.133634
1.5800,300.000000,300.110786
1.5810,300.000000,300.106376
1.5820,300.000000,300.115120
1.5830,300.000000,300.135207
1.5840,300.000000,300.127610
1.5850,300.000000,300.112988
1.5860,300.000000,300.135498
1.5870,300.000000,300.116697
1.5880,300.000000,300.137601
1.5890,300.000000,300.124007
1.5900,300.000000,300.102466
1.5910,300.000000,300.113483
1.5920,300.000000,300.095689
1.5930,300.000000,300.099027
1.5940,300.000000,300.092419
1.5950,300.000000,300.078042
1.5960,300.000000,300.080962
1.5970,300.000000,300.100451
1.5980,300.000000,300.091141
1.5990,300.000000,300.095940
1.6000,300.000000,300.096518
1.6010,300.000000,300.116398
1.6020,300.000000,300.138275
1.6030,300.000000,300.111311
1.6040,300.000000,300.124981
1.6050,300.000000,300.139752
1.6060,300.000000,300.123767
1.6070,300.000000,300.126158
1.6080,300.000000,300.106497
1.6090,300.000000,300.115740
1.6100,300.000000,300.103317
1.6110,300.000000,300.108776
1.6120,300.000000,300.105129
1.6130,300.000000,300.114637
1.6140,300.000000,300.091608
1.6150,300.000000,300.088001
1.6160,300.000000,300.087577
1.6170,300.000000,300.084853
1.6180,300.000000,300.096104
1.6190,300.000000,300.095251
1.6200,300.000000,300.105980
1.6210,300.000000,300.123562
1.6220,300.000000,300.105806
1.6230,300.000000,300.131605
1.6240,300.000000,300.136128
1.6250,300.000000,300.122665
1.6260,300.000000,300.101558
1.6270,300.000000,300.113767
1.6280,300.000000,300.128300
1.6290,300.000000,300.109436
1.6300,300.000000,300.093400
1.6310,300.000000,300.092074
1.6320,300.000000,300.099862
1.6330,300.000000,300.092408
1.6340,300.000000,300.081619
1.6350,300.000000,300.079270
1.6360,300.000000,300.079908
1.6370,300.000000,300.077351
1.6380,300.000000,300.107062
1.6390,300.000000,300.093169
1.6400,300.000000,300.114652
1.6410,300.000000,300.123782
1.6420,300.000000,300.124036
1.6430,300.000000,300.114069
1.6440,300.000000,300.125171
1.6450,300.000000,300.121779
1.6460,300.000000,300.111912
1.6470,300.000000,300.121260
1.6480,300.000000,300.101709
1.6490,300.000000,300.119708
1.6500,300.000000,300.096912
1.6510,300.000000,300.097297
1.6520,300.000000,300.092450
1.6530,300.000000,300.082510
1.6540,300.000000,300.088032
1.6550,300.000000,300.076344
1.6560,300.000000,300.090692
1.6570,300.000000,300.071267
1.6580,300.000000,300.090322
1.6590,300.000000,300.113929
1.6600,300.000000,300.090623
1.6610,300.000000,300.099936
1.6620,300.000000,300.117334
1.6630,300.000000,300.118321
1.6640,300.000000,300.122778
1.6650,300.000000,300.125049
1.6660,300.000000,300.125431
1.6670,300.000000,300.127246
1.6680,300.000000,300.115728
1.6690,300.000000,300.103548
1.6700,300.000000,300.106411
1.6710,300.000000,300.112409
1.6720,300.000000,300.086414
1.6730,300.000000,300.073476
1.6740,300.000000,300.091356
1.6750,300.000000,300.078008
1.6760,300.000000,300.058369
1.6770,300.000000,300.091315
1.6780,300.000000,300.081817
1.6790,300.000000,300.091745
1.6800,300.000000,300.102055
1.6810,300.000000,300.106725
1.6820,300.000000,300.117395
1.6830,300.000000,300.110274
1.6840,300.000000,300.122506
1.6850,300.000000,300.115662
1.6860,300.000000,300.124571
1.6870,300.000000,300.120400
1.6880,300.000000,300.100371
1.6890,300.000000,300.114914
1.6900,300.000000,300.092418
1.6910,300.000000,300.099581
1.6920,300.000000,300.089502
1.6930,300.000000,300.099690
1.6940,300.000000,300.076136
1.6950,300.000000,300.073802
1.6960,300.000000,300.077983
1.6970,300.000000,300.077890
1.6980,300.000000,300.093249
1.6990,300.000000,300.074565
1.7000,300.000000,300.086274
1.7010,300.000000,300.092216
1.7020,300.000000,300.117876
1.7030,300.000000,300.129806
1.7040,300.000000,300.114399
1.7050,300.000000,300.114637
1.7060,300.001832,300.117781
1.7070,300.002231,300.126161
1.7080,300.002705,300.101220
1.7090,300.003263,300.107762
1.7100,300.003916,300.109505
1.7110,300.004677,300.099247
1.7120,300.005558,300.091339
1.7130,300.006571,300.095945
1.7140,300.007730,300.057122
1.7150,300.009049,300.091175
1.7160,300.010540,300.080227
1.7170,300.012215,300.072879
1.7180,300.014086,300.102495
1.7190,300.016162,300.118672
1.7200,300.018452,300.111933
1.7210,300.020961,300.131427
1.7220,300.023693,300.146230
1.7230,300.026647,300.150536
1.7240,300.029820,300.159702
1.7250,300.033204,300.154987
1.7260,300.036788,300.150827
1.7270,300.040555,300.134880
1.7280,300.044486,300.147846
1.7290,300.048554,300.140268
1.7300,300.052729,300.168306
1.7310,300.056978,300.142807
1.7320,300.061263,300.144407
1.7330,300.065541,300.148444
1.7340,300.069768,300.144652
1.7350,300.073897,300.164218
1.7360,300.077880,300.145903
1.7370,300.081669,300.160605
1.7380,300.085214,300.159105
1.7390,300.088471,300.162062
1.7400,300.091393,300.178147
1.7410,300.093941,300.192523
1.7420,300.096079,300.196214
1.7430,300.097775,300.199603
1.7440,300.099005,300.196435
1.7450,300.099750,300.211291
1.7460,300.100000,300.196245
1.7470,300.099750,300.215702
1.7480,300.099005,300.203656
1.7490,300.097775,300.181350
1.7500,300.096079,300.184857
1.7510,300.093941,300.172009
1.7520,300.091393,300.174498
1.7530,300.088471,300.177263
1.7540,300.085214,300.138909
1.7550,300.081669,300.154186
1.7560,300.077880,300.148524
1.7570,300.073897,300.155595
1.7580,300.069768,300.151208
1.7590,300.065541,300.142804
1.7600,300.061263,300.148934
1.7610,300.056978,300.145959
1.7620,300.052729,300.165905
1.7630,300.048554,300.155506
1.7640,300.044486,300.172976
1.7650,300.040555,300.150305
1.7660,300.036788,300.138980
1.7670,300.033204,300.124401
1.7680,300.029820,300.113596
1.7690,300.026647,300.106936
1.7700,300.023693,300.116213
1.7710,300.020961,300.109615
1.7720,300.018452,300.080530
1.7730,300.016162,300.098476
1.7740,300.014086,300.079676
1.7750,300.012215,300.083023
1.7760,300.010540,300.096879
1.7770,300.009049,300.090973
1.7780,300.007730,300.082323
1.7790,300.006571,300.080411
1.7800,300.005558,300.072869
1.7810,300.004677,300.092393
1.7820,300.003916,300.102186
1.7830,300.003263,300.098095
1.7840,300.002705,300.108834
1.7850,300.002231,300.111318
1.7860,300.000000,300.104988
1.7870,300.000000,300.097794
1.7880,300.000000,300.101453
1.7890,300.000000,300.098508
1.7900,300.000000,300.076902
1.7910,300.000000,300.095632
1.7920,300.000000,300.074859
1.7930,300.000000,300.071506
1.7940,300.000000,300.075456
1.7950,300.000000,300.069624
1.7960,300.000000,300.077699
1.7970,300.000000,300.073777
1.7980,300.000000,300.069103
1.7990,300.000000,300.084315
1.8000,300.000000,300.075340
1.8010,300.000000,300.093940
1.8020,300.000000,300.097994
1.8030,300.000000,300.100567
1.8040,300.000000,300.104100
1.8050,300.000000,300.087442
1.8060,300.000000,300.099691
1.8070,299.979209,300.082372
1.8080,299.959326,300.058631
1.8090,299.941221,300.022972
1.8100,299.925686,300.024086
1.8110,299.913397,299.984196
1.8120,299.904894,299.988370
1.8130,299.900548,299.974073
1.8140,299.918863,299.978709
1.8150,299.939591,300.022570
1.8160,299.975574,300.029738
1.8170,300.031085,300.109114
1.8180,300.110235,300.193399
1.8190,300.215702,300.287626
1.8200,300.347088,300.445720
1.8210,300.499352,300.587634
1.8220,300.641180,300.740322
1.8230,300.778801,300.881979
1.8240,300.894839,300.996808
1.8250,300.972604,301.084899
1.8260,301.000000,301.111039
1.8270,300.972604,301.055278
1.8280,300.894839,301.003513
1.8290,300.778801,300.852126
1.8300,300.641180,300.735172
1.8310,300.499352,300.588000
1.8320,300.367879,300.428671
1.8330,300.256376,300.319440
1.8340,300.169013,300.222184
1.8350,300.105399,300.166394
1.8360,300.062177,300.123115
1.8370,300.034697,300.109248
1.8380,300.000000,300.084178
1.8390,300.000000,300.090502
1.8400,300.000000,300.077000
1.8410,300.000000,300.086605
1.8420,300.000000,300.077333
1.8430,300.000000,300.090429
1.8440,300.000000,300.110872
1.8450,300.000000,300.118254
1.8460,299.850000,299.938671
1.8470,299.870894,299.963038
1.8480,299.888877,299.982153
1.8490,299.904356,299.995017
1.8500,299.917678,299.991156
1.8510,299.929145,300.008674
1.8520,299.939015,300.003885
1.8530,299.947509,300.012444
1.8540,299.954821,300.022417
1.8550,299.961114,300.022227
1.8560,299.966530,300.024090
1.8570,299.971193,300.034755
1.8580,299.975205,300.043300
1.8590,299.978659,300.049407
1.8600,299.981632,300.059568
1.8610,299.984190,300.086776
1.8620,299.986392,300.084071
1.8630,299.988288,300.081722
1.8640,299.989919,300.096013
1.8650,299.991323,300.087983
1.8660,300.000000,300.110645
1.8670,300.000000,300.099664
1.8680,300.000000,300.090365
1.8690,300.000000,300.090234
1.8700,300.000000,300.063763
1.8710,300.000000,300.061918
1.8720,300.000000,300.055566
1.8730,300.000000,300.064404
1.8740,300.000000,300.077354
1.8750,300.000000,300.081257
1.8760,300.000000,300.066198
1.8770,300.000000,300.067562
1.8780,300.000000,300.048862
1.8790,300.000000,300.066915
1.8800,300.000000,300.070539
1.8810,300.000000,300.078283
1.8820,300.000000,300.088280
1.8830,300.000000,300.089560
1.8840,300.000000,300.077223
1.8850,300.000000,300.105368
1.8860,300.000000,300.086077
1.8870,300.000000,300.096250
1.8880,300.000000,300.110068
1.8890,300.000000,300.074453
1.8900,300.000000,300.052058
1.8910,300.000000,300.068214
1.8920,300.000000,300.076403
1.8930,300.000000,300.080446
1.8940,300.000000,300.045621
1.8950,300.000000,300.061799
1.8960,300.000000,300.053052
1.8970,300.000000,300.059380
1.8980,300.000000,300.091202
1.8990,300.000000,300.055199
1.9000,300.000000,300.078840
1.9010,300.000000,300.087054
1.9020,300.000000,300.098705
1.9030,300.000000,300.093145
1.9040,300.000000,300.097981
1.9050,300.000000,300.091857
1.9060,300.005495,300.102875
1.9070,300.006069,300.094379
1.9080,300.006694,300.100122
1.9090,300.007375,300.085209
1.9100,300.008116,300.087130
1.9110,300.008919,300.077584
1.9120,300.009789,300.084326
1.9130,300.010731,300.068963
1.9140,300.011749,300.049818
1.9150,300.012848,300.080181
1.9160,300.014031,300.060561
1.9170,300.015305,300.067089
1.9180,300.016673,300.073357
1.9190,300.018141,300.099995
1.9200,300.019713,300.072541
1.9210,300.021395,300.133031
1.9220,300.023191,300.119480
1.9230,300.025107,300.117386
1.9240,300.027147,300.119380
1.9250,300.029317,300.125826
1.9260,300.031620,300.129400
1.9270,300.034061,300.130136
1.9280,300.036645,300.127293
1.9290,300.039376,300.119682
1.9300,300.042258,300.113408
1.9310,300.045293,300.110618
1.9320,300.048486,300.107694
1.9330,300.051840,300.119803
1.9340,300.055356,300.114970
1.9350,300.059037,300.082227
1.9360,300.062883,300.122909
1.9370,300.066897,300.125046
1.9380,300.071078,300.131411
1.9390,300.075426,300.137531
1.9400,300.079940,300.163245
1.9410,300.084619,300.172232
1.9420,300.089459,300.165338
1.9430,300.094458,300.186455
1.9440,300.099612,300.180556
1.9450,300.104916,300.182653
1.9460,300.110364,300.194545
1.9470,300.115950,300.212076
1.9480,300.121666,300.214169
1.9490,300.127505,300.209926
1.9500,300.133457,300.211712
1.9510,300.139513,300.209392
1.9520,300.145661,300.198282
1.9530,300.151890,300.210715
1.9540,300.158188,300.217750
1.9550,300.164541,300.222557
1.9560,300.170935,300.234171
1.9570,300.177356,300.238520
1.9580,300.183788,300.245703
1.9590,300.190215,300.264787
1.9600,300.196622,300.266301
1.9610,300.202990,300.270190
1.9620,300.209303,300.289160
1.9630,300.215542,300.293900
1.9640,300.221691,300.303480
1.9650,300.227729,300.315699
1.9660,300.233640,300.314046
1.9670,300.239405,300.321709
1.9680,300.245006,300.306922
1.9690,300.250424,300.327729
1.9700,300.255643,300.324540
1.9710,300.260645,300.315073
1.9720,300.265412,300.328922
1.9730,300.269929,300.331692
1.9740,300.274179,300.307545
1.9750,300.278149,300.318878
1.9760,300.281824,300.323362
1.9770,300.285191,300.327756
1.9780,300.288237,300.352815
1.9790,300.290952,300.350766
1.9800,300.293325,300.358508
1.9810,300.295349,300.349212
1.9820,300.297015,300.382741
1.9830,300.298317,300.369615
1.9840,300.299251,300.386276
1.9850,300.299813,300.389885
1.9860,300.300000,300.399821
1.9870,300.299813,300.369992
1.9880,300.299251,300.347794
1.9890,300.298317,300.373213
1.9900,300.297015,300.381791
1.9910,300.295349,300.368224
1.9920,300.293325,300.350226
1.9930,300.290952,300.336310
1.9940,300.288237,300.343636
1.9950,300.285191,300.321699
1.9960,300.281824,300.333704
1.9970,300.278149,300.333056
1.9980,300.274179,300.338953
1.9990,300.269929,300.357167
2.0000,300.265412,300.335052
2.0010,300.260645,300.327346
2.0020,300.255643,300.332649
2.0030,300.250424,300.314314
2.0040,300.245006,300.322375
2.0050,300.239405,300.320502
2.0060,300.233640,300.312505
2.0070,300.227729,300.310412
2.0080,300.221691,300.290096
2.0090,300.215542,300.297702
2.0100,300.209303,300.273969
2.0110,300.202990,300.261275
2.0120,300.196622,300.246041
2.0130,300.190215,300.239935
2.0140,300.183788,300.237261
2.0150,300.177356,300.212823
2.0160,300.170935,300.209366
2.0170,300.164541,300.209251
2.0180,300.158188,300.196797
2.0190,300.151890,300.201235
2.0200,300.145661,300.204512
2.0210,300.139513,300.217946
2.0220,300.133457,300.211242
2.0230,300.127505,300.208920
2.0240,300.121666,300.212390
2.0250,300.115950,300.197665
2.0260,300.110364,300.196274
2.0270,300.104916,300.182943
2.0280,300.099612,300.176796
2.0290,300.094458,300.157481
2.0300,300.089459,300.127637
2.0310,300.084619,300.139557
2.0320,300.079940,300.144769
2.0330,300.075426,300.130760
2.0340,300.071078,300.123858
2.0350,300.066897,300.121301
2.0360,300.062883,300.106687
2.0370,300.059037,300.106663
2.0380,300.055356,300.099153
2.0390,300.051840,300.104124
2.0400,300.048486,300.116165
2.0410,300.045293,300.124929
2.0420,300.042258,300.113931
2.0430,300.039376,300.112262
2.0440,300.036645,300.116775
2.0450,300.034061,300.121073
2.0460,300.031620,300.097097
2.0470,300.029317,300.083326
2.0480,300.027147,300.094085
2.0490,300.025107,300.079663
2.0500,300.023191,300.078589
2.0510,300.021395,300.074112
2.0520,300.019713,300.063696
2.0530,300.018141,300.076652
2.0540,300.016673,300.060982
2.0550,300.015305,300.058269
2.0560,300.014031,300.061088
2.0570,300.012848,300.045031
2.0580,300.011749,300.070032
2.0590,300.010731,300.063337
2.0600,300.009789,300.075935
2.0610,300.008919,300.063717
2.0620,300.008116,300.063567
2.0630,300.007375,300.090864
2.0640,300.006694,300.088506
2.0650,300.006069,300.075971
2.0660,300.000000,300.069144
2.0670,300.000000,300.086151
2.0680,300.000000,300.058474
2.0690,300.000000,300.081116
2.0700,300.000000,300.049400
2.0710,300.000000,300.058506
2.0720,300.000000,300.043158
2.0730,300.000000,300.047948
2.0740,300.000000,300.033531
2.0750,300.000000,300.036262
2.0760,300.000000,300.039175
2.0770,300.000000,300.031482
2.0780,300.000000,300.053234
2.0790,300.000000,300.046166
2.0800,300.000000,300.055089
2.0810,300.000000,300.053509
2.0820,300.000000,300.043302
2.0830,300.000000,300.071337
2.0840,300.000000,300.100111
2.0850,300.000000,300.084708
2.0860,300.000000,300.075587
2.0870,300.000000,300.070208
2.0880,300.000000,300.068534
2.0890,300.000000,300.068103
2.0900,300.000000,300.044541
2.0910,300.000000,300.061209
2.0920,300.000000,300.051542
2.0930,300.000000,300.047043
2.0940,300.000000,300.041303
2.0950,300.000000,300.036034
2.0960,300.000000,300.043443
2.0970,300.000000,300.045371
2.0980,300.000000,300.040235
2.0990,300.000000,300.043513
2.1000,300.000000,300.056346
2.1010,300.000000,300.076896
2.1020,300.000000,300.054488
2.1030,300.000000,300.056526
2.1040,300.000000,300.075588
2.1050,300.000000,300.075327
2.1060,300.000000,300.075471
2.1070,300.000000,300.073234
2.1080,300.000000,300.064037
2.1090,300.000000,300.075490
2.1100,300.000000,300.038301
2.1110,300.000000,300.039743
2.1120,300.000000,300.041319
2.1130,300.000000,300.021394
2.1140,300.000000,300.033125
2.1150,300.000000,300.050418
2.1160,300.000000,300.034890
2.1170,300.000000,300.039728
2.1180,300.000000,300.029143
2.1190,300.000000,300.041055
2.1200,300.000000,300.049546
2.1210,300.000000,300.056200
2.1220,300.000000,300.077668
2.1230,300.000000,300.074753
2.1240,300.000000,300.060801
2.1250,300.000000,300.075259
2.1260,300.000000,300.076697
2.1270,300.000000,300.080175
2.1280,300.000000,300.080053
2.1290,300.000000,300.048421
2.1300,300.000000,300.044183
2.1310,300.000000,300.033435
2.1320,300.000000,300.037995
2.1330,300.000000,300.040474
2.1340,300.000000,300.042742
2.1350,300.000000,300.031031
2.1360,300.000000,300.029470
2.1370,300.000000,300.036927
2.1380,300.000000,300.031383
2.1390,300.000000,300.066105
2.1400,300.000000,300.035214
2.1410,300.000000,300.059218
2.1420,300.000000,300.083083
2.1430,300.000000,300.067239
2.1440,300.000000,300.068012
2.1450,300.000000,300.067217
2.1460,300.000000,300.067910
2.1470,300.000000,300.080502
2.1480,300.000000,300.040131
2.1490,300.000000,300.071909
2.1500,300.000000,300.036055
2.1510,300.000000,300.041349
2.1520,300.000000,300.034049
2.1530,300.000000,300.039703
2.1540,300.000000,300.014896
2.1550,300.000000,300.034421
2.1560,300.000000,300.050923
2.1570,300.000000,300.019790
2.1580,300.000000,300.039644
2.1590,300.000000,300.036604
2.1600,300.000000,300.053565
2.1610,300.000000,300.055579
2.1620,300.000000,300.054450
2.1630,300.000000,300.070069
2.1640,300.000000,300.085976
2.1650,300.000000,300.066904
2.1660,300.000000,300.074934
2.1670,300.000000,300.051865
2.1680,300.000000,300.050710
2.1690,300.000000,300.059325
2.1700,300.000000,300.063164
2.1710,300.000000,300.045601
2.1720,300.000000,300.033241
2.1730,300.000000,300.031842
2.1740,300.000000,300.016406
2.1750,300.000000,300.033879
2.1760,300.000000,300.037538
2.1770,300.000000,300.026937
2.1780,300.000000,300.031085
2.1790,300.000000,300.043922
2.1800,300.000000,300.042979
2.1810,300.000000,300.052768
2.1820,300.000000,300.079905
2.1830,300.000000,300.060765
2.1840,300.000000,300.062396
2.1850,300.000000,300.060385
2.1860,300.000000,300.073227
2.1870,300.000000,300.061035
2.1880,300.000000,300.051832
2.1890,300.000000,300.065867
2.1900,300.000000,300.060573
2.1910,300.000000,300.034096
2.1920,300.000000,300.015763
2.1930,300.000000,300.039982
2.1940,300.000000,300.020124
2.1950,300.000000,300.033801
2.1960,300.000000,300.007076
2.1970,300.000000,300.038448
2.1980,300.000000,300.021739
2.1990,300.000000,300.046638
2.2000,300.000000,300.045557
2.2010,300.000000,300.041959
2.2020,300.000000,300.052908
2.2030,300.000000,300.068170
2.2040,300.000000,300.065111
2.2050,300.000000,300.070780
2.2060,300.000000,300.083626
2.2070,300.000000,300.045283
2.2080,300.000000,300.072577
2.2090,300.000000,300.051778
2.2100,300.000000,300.035471
2.2110,300.000000,300.024880
2.2120,300.000000,300.030622
2.2130,300.000000,300.037210
2.2140,300.000000,300.023782
2.2150,300.000000,300.039095
2.2160,300.000000,300.010356
2.2170,300.000000,300.027493
2.2180,300.000000,300.019420
2.2190,300.000000,300.041061
2.2200,300.000000,300.052380
2.2210,300.000000,300.045389
2.2220,300.000000,300.029036
2.2230,300.000000,300.061398
2.2240,300.000000,300.066522
2.2250,300.000000,300.067083
2.2260,300.000000,300.074325
2.2270,300.000000,300.048322
2.2280,300.000000,300.061316
2.2290,300.000000,300.060770
2.2300,300.000000,300.024785
2.2310,300.000000,300.039493
2.2320,300.000000,300.025586
2.2330,300.000000,300.025294
2.2340,300.000000,300.026652
2.2350,300.000000,300.017231
2.2360,300.000000,300.016232
2.2370,300.000000,300.026078
2.2380,300.000000,300.019196
2.2390,300.000000,300.024692
2.2400,300.000000,300.048432
2.2410,300.000000,300.036238
2.2420,300.000000,300.059871
2.2430,300.000000,300.062166
2.2440,300.000000,300.043030
2.2450,300.000000,300.054399
2.2460,300.000000,300.072045
2.2470,300.000000,300.047359
2.2480,300.000000,300.048010
2.2490,300.000000,300.051607
2.2500,300.000000,300.048548
2.2510,300.000000,300.031926
2.2520,300.000000,300.022799
2.2530,300.000000,300.038481
2.2540,300.000000,300.038714
2.2550,300.000000,300.030043
2.2560,300.000000,300.021995
2.2570,300.000000,300.015809
2.2580,300.000000,300.019920
2.2590,300.000000,300.038934
2.2600,300.000000,300.043982
2.2610,300.000000,300.059903
2.2620,300.000000,300.057876
2.2630,300.000000,300.040674
2.2640,300.000000,300.068974
2.2650,300.000000,300.049362
2.2660,300.000000,300.054433
2.2670,300.000000,300.057844
2.2680,300.000000,300.070783
2.2690,300.000000,300.076260
2.2700,300.000000,300.044957
2.2710,300.000000,300.030787
2.2720,300.000000,300.032299
2.2730,300.000000,300.031315
2.2740,300.000000,300.016301
2.2750,300.000000,300.036391
2.2760,300.000000,300.021629
2.2770,300.000000,300.027057
2.2780,300.000000,300.033073
2.2790,300.000000,300.036116
2.2800,300.000000,300.046380
2.2810,300.000000,300.037909
2.2820,300.000000,300.043985
2.2830,300.000000,300.042902
2.2840,300.000000,300.061050
2.2850,300.000000,300.065334
2.2860,300.000000,300.061054
2.2870,300.000000,300.070292
2.2880,300.000000,300.048978
2.2890,300.000000,300.050057
2.2900,300.000000,300.026183
2.2910,300.000000,300.026961
2.2920,300.000000,300.032123
2.2930,300.000000,300.029146
2.2940,300.000000,300.014786
2.2950,300.000000,300.015943
2.2960,300.000000,300.002371
2.2970,300.000000,300.016732
2.2980,300.000000,300.033543
2.2990,300.000000,300.035879
2.3000,300.000000,300.041226
2.3010,300.000000,300.042810
2.3020,300.000000,300.047870
2.3030,300.000000,300.045534
2.3040,300.000000,300.061879
2.3050,300.000000,300.059992
2.3060,300.000000,300.059636
2.3070,300.000000,300.046528
2.3080,300.000000,300.025743
2.3090,300.000000,300.052586
2.3100,300.000000,300.030559
2.3110,300.000000,300.020452
2.3120,300.000000,300.030353
2.3130,300.000000,300.014987
2.3140,300.000000,300.026579
2.3150,300.000000,300.021085
2.3160,300.000000,300.022643
2.3170,300.000000,300.004902
2.3180,300.000000,300.035020
2.3190,300.000000,300.031002
2.3200,300.000000,300.030792
2.3210,300.000000,300.042013
2.3220,300.000000,300.028306
2.3230,300.000000,300.054494
2.3240,300.000000,300.042869
2.3250,300.000000,300.040530
2.3260,300.000000,300.037769
2.3270,300.000000,300.061193
2.3280,300.000000,300.039264
2.3290,300.000000,300.055234
2.3300,300.000000,300.028273
2.3310,300.000000,300.010292
2.3320,300.000000,300.010541
2.3330,300.000000,300.029555
2.3340,300.000000,300.012712
2.3350,300.000000,300.007725
2.3360,300.000000,300.015703
2.3370,300.000000,300.021877
2.3380,300.000000,300.032374
2.3390,300.000000,300.041176
2.3400,300.000000,300.029190
2.3410,300.000000,300.025624
2.3420,300.000000,300.040241
2.3430,300.000000,300.051320
2.3440,300.000000,300.041836
2.3450,300.000000,300.042798
2.3460,300.000000,300.054745
2.3470,300.000000,300.047897
2.3480,300.000000,300.044203
2.3490,300.000000,300.030632
2.3500,300.000000,300.029650
2.3510,300.000000,300.016448
2.3520,300.000000,300.028934
2.3530,300.000000,300.025878
2.3540,300.000000,299.994140
2.3550,300.000000,300.002246
2.3560,300.000000,299.997472
2.3570,300.000000,300.008695
2.3580,300.000000,300.018704
2.3590,300.000000,300.010535
2.3600,300.000000,300.021911
2.3610,300.000000,300.027189
2.3620,300.000000,300.044795
2.3630,300.000000,300.047759
2.3640,300.000000,300.042607
2.3650,300.000000,300.052490
2.3660,300.000000,300.044195
2.3670,300.000000,300.044023
2.3680,300.000000,300.058968
2.3690,300.000000,300.049982
2.3700,300.000000,300.017320
2.3710,300.000000,300.032352
2.3720,300.000000,300.026513
2.3730,300.000000,300.002411
2.3740,300.000000,300.019160
2.3750,300.000000,300.025293
2.3760,300.000000,299.999586
2.3770,300.000000,300.004397
2.3780,300.000000,300.028094
2.3790,300.000000,300.026127
2.3800,300.000000,300.035028
2.3810,300.000000,300.039019
2.3820,300.000000,300.045016
2.3830,300.000000,300.032189
2.3840,300.000000,300.058689
2.3850,300.000000,300.060811
2.3860,300.000000,300.045763
2.3870,300.000000,300.044702
2.3880,300.000000,300.025322
2.3890,300.000000,300.040121
2.3900,300.000000,300.034440
2.3910,300.000000,300.021839
2.3920,300.000000,300.028050
2.3930,300.000000,300.008963
2.3940,300.000000,300.015030
2.3950,300.000000,299.998130
2.3960,300.000000,300.008992
2.3970,300.000000,300.010247
2.3980,300.000000,300.018590
2.3990,300.000000,300.018139
2.4000,300.000000,300.026622
2.4010,300.000000,300.042300
2.4020,300.000000,300.035170
2.4030,300.000000,300.027819
2.4040,300.000000,300.064144
2.4050,300.000000,300.061364
2.4060,300.000000,300.033571
2.4070,300.000000,300.050473
2.4080,300.000000,300.034044
2.4090,300.000000,300.036057
2.4100,300.000000,300.030107
2.4110,300.000000,300.018564
2.4120,300.000000,300.007418
2.4130,300.000000,300.003850
2.4140,300.000000,299.998676
2.4150,300.000000,299.998465
2.4160,300.000000,300.007014
2.4170,300.000000,300.003293
2.4180,300.000000,300.021620
2.4190,300.000000,300.035171
2.4200,300.000000,300.020603
2.4210,300.000000,300.034902
2.4220,300.000000,300.043005
2.4230,300.000000,300.047078
2.4240,300.000000,300.045883
2.4250,300.000000,300.053454
2.4260,300.000000,300.049796
2.4270,300.000000,300.029681
2.4280,300.000000,300.046250
2.4290,300.000000,300.040781
2.4300,300.000000,300.018020
2.4310,300.000000,300.019778
2.4320,300.000000,300.020582
2.4330,300.000000,300.007157
2.4340,300.000000,300.017065
2.4350,300.000000,300.028921
2.4360,300.000000,299.998327
2.4370,300.000000,299.995143
2.4380,300.000000,300.016343
2.4390,300.000000,300.026022
2.4400,300.000000,300.022605
2.4410,300.000000,300.045553
2.4420,300.000000,300.023137
2.4430,300.000000,300.047803
2.4440,300.000000,300.037583
2.4450,300.000000,300.061742
2.4460,300.000000,300.063421
2.4470,300.000000,300.032916
2.4480,300.000000,300.030590
2.4490,300.000000,300.039034
2.4500,300.000000,300.020314
2.4510,300.000000,300.017478
2.4520,300.000000,300.012539
2.4530,300.000000,299.988592
2.4540,300.000000,300.004737
2.4550,300.000000,299.996928
2.4560,300.000000,299.999801
2.4570,300.000000,300.021938
2.4580,300.000000,299.999289
2.4590,300.000000,300.025491
2.4600,300.000000,300.020678
2.4610,300.000000,300.026779
2.4620,300.000000,300.042985
2.4630,300.000000,300.042835
2.4640,300.000000,300.047911
2.4650,300.000000,300.052795
2.4660,300.000000,300.038751
2.4670,300.000000,300.033030
2.4680,300.000000,300.023806
2.4690,300.000000,300.020758
2.4700,300.000000,300.052252
2.4710,300.000000,300.028958
2.4720,300.000000,299.997355
2.4730,300.000000,299.993147
2.4740,300.000000,300.008280
2.4750,300.000000,300.007885
2.4760,300.000000,300.008811
2.4770,300.000000,300.003544
2.4780,300.000000,300.009194
2.4790,300.000000,300.019234
2.4800,300.000000,300.022925
2.4810,300.000000,300.005985
2.4820,300.000000,300.031387
2.4830,300.000000,300.029526
2.4840,300.000000,300.042565
2.4850,300.000000,300.071576
2.4860,300.000000,300.044351
2.4870,300.000000,300.034632
2.4880,300.000000,300.042492
2.4890,300.000000,300.032458
2.4900,300.000000,300.025584
2.4910,300.000000,300.021203
2.4920,300.000000,300.030057
2.4930,300.000000,299.993691
2.4940,300.000000,300.006828
2.4950,300.000000,299.991782
2.4960,300.000000,300.007512
2.4970,300.000000,299.995544
2.4980,300.000000,300.004915
2.4990,300.000000,300.011646
2.5000,300.000000,300.030469
2.5010,300.000000,300.036009
2.5020,300.000000,300.019876
2.5030,300.000000,300.037241
2.5040,300.000000,300.032370
2.5050,300.000000,300.027794
2.5060,300.000000,300.037164
2.5070,300.000000,300.033343
2.5080,300.000000,300.056204
2.5090,300.000000,300.030625
2.5100,300.000000,300.006274
2.5110,300.000000,300.008156
2.5120,300.000000,300.018377
2.5130,300.000000,300.024558
2.5140,300.000000,299.984908
2.5150,300.000000,299.980925
2.5160,300.000000,300.019348
2.5170,300.000000,300.007310
2.5180,300.000000,299.999091
2.5190,300.000000,300.018631
2.5200,300.000000,299.993043
2.5210,300.000000,300.025551
2.5220,300.000000,300.034306
2.5230,300.000000,300.044631
2.5240,300.000000,300.028027
2.5250,300.000000,300.039938
2.5260,300.000000,300.028784
2.5270,300.000000,300.037688
2.5280,300.000000,300.021692
2.5290,300.000000,300.020926
2.5300,300.000000,300.008805
2.5310,300.000000,300.019031
2.5320,300.000000,300.015466
2.5330,300.000000,300.000048
2.5340,300.000000,299.999873
2.5350,300.000000,299.983963
2.5360,300.000000,299.996368
2.5370,300.000000,300.001642
2.5380,300.000000,300.032714
2.5390,300.000000,300.000899
2.5400,300.000000,300.032779
2.5410,300.000000,300.034224
2.5420,300.000000,300.032576
2.5430,300.000000,300.051718
2.5440,300.000000,300.040632
2.5450,300.000000,300.041720
2.5460,300.000000,300.036257
2.5470,300.000000,300.046122
2.5480,300.000000,300.040365
2.5490,300.000000,300.017508
2.5500,300.000000,300.004331
2.5510,300.000000,300.009252
2.5520,300.000000,299.997646
2.5530,300.000000,300.000526
2.5540,300.000000,300.010634
2.5550,300.000000,299.992647
2.5560,300.000000,299.997711
2.5570,300.000000,300.001500
2.5580,300.000000,300.013769
2.5590,300.000000,299.988331
2.5600,300.000000,300.010854
2.5610,300.000000,300.025154
2.5620,300.000000,300.040558
2.5630,300.000000,300.028003
2.5640,300.000000,300.016938
2.5650,300.000000,300.042821
2.5660,300.000000,300.029232
2.5670,300.000000,300.020790
2.5680,300.000000,300.021959
2.5690,300.000000,300.020723
2.5700,300.001832,300.012114
2.5710,300.002231,299.990267
2.5720,300.002705,300.016133
2.5730,300.003263,300.015986
2.5740,300.003916,300.007507
2.5750,300.004677,299.989339
2.5760,300.005558,300.000503
2.5770,300.006571,300.006249
2.5780,300.007730,300.017828
2.5790,300.009049,300.025360
2.5800,300.010540,300.018949
2.5810,300.012215,300.034909
2.5820,300.014086,300.046051
2.5830,300.016162,300.062480
2.5840,300.018452,300.060041
2.5850,300.020961,300.064317
2.5860,300.023693,300.058961
2.5870,300.026647,300.072284
2.5880,300.029820,300.060969
2.5890,300.033204,300.046013
2.5900,300.036788,300.066005
2.5910,300.040555,300.056482
2.5920,300.044486,300.043371
2.5930,300.048554,300.042594
2.5940,300.052729,300.051634
2.5950,300.056978,300.056514
2.5960,300.061263,300.059063
2.5970,300.065541,300.067267
2.5980,300.069768,300.089750
2.5990,300.073897,300.093115
2.6000,300.077880,300.094414
2.6010,300.081669,300.111835
2.6020,300.085214,300.101163
2.6030,300.088471,300.123094
2.6040,300.091393,300.142916
2.6050,300.093941,300.126116
2.6060,300.096079,300.120924
2.6070,300.097775,300.121681
2.6080,300.099005,300.114056
2.6090,300.099750,300.112221
2.6100,300.100000,300.110379
2.6110,300.099750,300.093545
2.6120,300.099005,300.101382
2.6130,300.097775,300.104541
2.6140,300.096079,300.081850
2.6150,300.093941,300.102951
2.6160,300.091393,300.091244
2.6170,300.088471,300.096307
2.6180,300.085214,300.080538
2.6190,300.081669,300.097639
2.6200,300.077880,300.080513
2.6210,300.073897,300.102480
2.6220,300.069768,300.096689
2.6230,300.065541,300.100649
2.6240,300.061263,300.081871
2.6250,300.056978,300.081318
2.6260,300.052729,300.090962
2.6270,300.048554,300.068438
2.6280,300.044486,300.074009
2.6290,300.040555,300.046148
2.6300,300.036788,300.058302
2.6310,300.033204,300.027679
2.6320,300.029820,300.036517
2.6330,300.026647,300.029601
2.6340,300.023693,300.010531
2.6350,300.020961,300.019558
2.6360,300.018452,300.014761
2.6370,300.016162,300.007269
2.6380,300.014086,300.004869
2.6390,300.012215,299.998983
2.6400,300.010540,300.026560
2.6410,300.009049,300.012055
2.6420,300.007730,300.032863
2.6430,300.006571,300.032491
2.6440,300.005558,300.043694
2.6450,300.004677,300.033931
2.6460,300.003916,300.031868
2.6470,300.003263,300.038937
2.6480,300.002705,300.029937
2.6490,300.002231,300.023650
2.6500,300.000000,300.016720
2.6510,300.000000,299.990442
2.6520,300.000000,300.007742
2.6530,300.000000,300.001825
2.6540,300.000000,299.982644
2.6550,300.000000,299.989343
2.6560,300.000000,299.992321
2.6570,300.000000,299.994161
2.6580,300.000000,300.003221
2.6590,300.000000,300.019724
2.6600,300.000000,300.022360
2.6610,300.000000,300.004553
2.6620,300.000000,300.029423
2.6630,300.000000,300.040869
2.6640,300.000000,300.034241
2.6650,300.000000,300.042214
2.6660,300.000000,300.050401
2.6670,300.000000,300.037627
2.6680,300.000000,300.025412
2.6690,300.000000,300.027747
2.6700,300.000000,300.012518
2.6710,299.979209,299.984290
2.6720,299.959326,299.955033
2.6730,299.941221,299.951605
2.6740,299.925686,299.909363
2.6750,299.913397,299.919558
2.6760,299.904894,299.901663
2.6770,299.900548,299.881119
2.6780,299.918863,299.921483
2.6790,299.939591,299.923064
2.6800,299.975574,299.992437
2.6810,300.031085,300.056680
2.6820,300.110235,300.126584
2.6830,300.215702,300.243589
2.6840,300.347088,300.396077
2.6850,300.499352,300.524676
2.6860,300.641180,300.659949
2.6870,300.778801,300.820089
2.6880,300.894839,300.936468
2.6890,300.972604,300.989024
2.6900,301.000000,301.020272
2.6910,300.972604,300.989952
2.6920,300.894839,300.885728
2.6930,300.778801,300.767793
2.6940,300.641180,300.644449
2.6950,300.499352,300.506139
2.6960,300.367879,300.364381
2.6970,300.256376,300.241247
2.6980,300.169013,300.186934
2.6990,300.105399,300.103672
2.7000,300.062177,300.068545
2.7010,300.034697,300.053977
2.7020,300.000000,300.036931
2.7030,300.000000,300.034310
2.7040,300.000000,300.032717
2.7050,300.000000,300.034138
2.7060,300.000000,300.028918
2.7070,300.000000,300.031181
2.7080,300.000000,299.995837
2.7090,300.000000,300.012549
2.7100,299.850000,299.861706
2.7110,299.870894,299.862454
2.7120,299.888877,299.890194
2.7130,299.904356,299.895298
2.7140,299.917678,299.925337
2.7150,299.929145,299.933959
2.7160,299.939015,299.924378
2.7170,299.947509,299.938821
2.7180,299.954821,299.951285
2.7190,299.961114,299.959335
2.7200,299.966530,299.977358
2.7210,299.971193,299.978627
2.7220,299.975205,299.984450
2.7230,299.978659,300.009821
2.7240,299.981632,300.015662
2.7250,299.984190,300.004821
2.7260,299.986392,300.023001
2.7270,299.988288,300.006746
2.7280,299.989919,300.012760
2.7290,299.991323,300.014220
2.7300,300.000000,300.008137
2.7310,300.000000,300.006801
2.7320,300.000000,299.991474
2.7330,300.000000,299.990209
2.7340,300.000000,299.987235
2.7350,300.000000,299.980810
2.7360,300.000000,299.987448
2.7370,300.000000,299.976531
2.7380,300.000000,299.991491
2.7390,300.000000,299.999091
2.7400,300.000000,300.005519
2.7410,300.000000,300.011808
2.7420,300.000000,300.019142
2.7430,300.000000,300.028940
2.7440,300.000000,300.035693
2.7450,300.000000,300.021391
2.7460,300.000000,300.014840
2.7470,300.000000,300.013573
2.7480,300.000000,300.014659
2.7490,300.000000,300.010398
2.7500,300.000000,300.000000
2.7510,300.000000,299.988521
2.7520,300.000000,299.991308
2.7530,300.000000,299.993221
2.7540,300.000000,299.994479
2.7550,300.000000,299.981939
2.7560,300.000000,299.984325
2.7570,300.000000,299.981992
2.7580,300.000000,299.995332
2.7590,300.000000,299.992701
2.7600,300.000000,300.013061
2.7610,300.000000,299.995615
2.7620,300.000000,300.015416
2.7630,300.000000,300.026412
2.7640,300.000000,300.028044
2.7650,300.000000,300.054079
2.7660,300.000000,300.029632
2.7670,300.000000,300.013217
2.7680,300.000000,300.017842
2.7690,300.000000,299.995424
2.7700,300.005495,300.011659
2.7710,300.006069,299.998493
2.7720,300.006694,300.010993
2.7730,300.007375,299.992565
2.7740,300.008116,299.994757
2.7750,300.008919,299.989358
2.7760,300.009789,300.014917
2.7770,300.010731,299.998064
2.7780,300.011749,300.025010
2.7790,300.012848,300.021465
2.7800,300.014031,300.025474
2.7810,300.015305,300.031760
2.7820,300.016673,300.038921
2.7830,300.018141,300.021564
2.7840,300.019713,300.042432
2.7850,300.021395,300.056299
2.7860,300.023191,300.048142
2.7870,300.025107,300.033621
2.7880,300.027147,300.044731
2.7890,300.029317,300.058857
2.7900,300.031620,300.050374
2.7910,300.034061,300.033513
2.7920,300.036645,300.040623
2.7930,300.039376,300.025717
2.7940,300.042258,300.012351
2.7950,300.045293,300.022169
2.7960,300.048486,300.051182
2.7970,300.051840,300.038975
2.7980,300.055356,300.047190
2.7990,300.059037,300.055849
2.8000,300.062883,300.087884
2.8010,300.066897,300.095264
2.8020,300.071078,300.110917
2.8030,300.075426,300.095879
2.8040,300.079940,300.107749
2.8050,300.084619,300.095252
2.8060,300.089459,300.129018
2.8070,300.094458,300.104698
2.8080,300.099612,300.119241
2.8090,300.104916,300.105798
2.8100,300.110364,300.110119
2.8110,300.115950,300.107009
2.8120,300.121666,300.109413
2.8130,300.127505,300.111485
2.8140,300.133457,300.114474
2.8150,300.139513,300.133336
2.8160,300.145661,300.121050
2.8170,300.151890,300.143344
2.8180,300.158188,300.164010
2.8190,300.164541,300.158597
2.8200,300.170935,300.169094
2.8210,300.177356,300.186539
2.8220,300.183788,300.212620
2.8230,300.190215,300.213586
2.8240,300.196622,300.215550
2.8250,300.202990,300.233019
2.8260,300.209303,300.222462
2.8270,300.215542,300.243668
2.8280,300.221691,300.242634
2.8290,300.227729,300.235905
2.8300,300.233640,300.230298
2.8310,300.239405,300.229373
2.8320,300.245006,300.243585
2.8330,300.250424,300.251492
2.8340,300.255643,300.235178
2.8350,300.260645,300.250129
2.8360,300.265412,300.230393
2.8370,300.269929,300.252746
2.8380,300.274179,300.266929
2.8390,300.278149,300.267660
2.8400,300.281824,300.277219
2.8410,300.285191,300.289425
2.8420,300.288237,300.307619
2.8430,300.290952,300.309936
2.8440,300.293325,300.294613
2.8450,300.295349,300.298764
2.8460,300.297015,300.314562
2.8470,300.298317,300.323642
2.8480,300.299251,300.288072
2.8490,300.299813,300.305509
2.8500,300.300000,300.299224
2.8510,300.299813,300.311975
2.8520,300.299251,300.288078
2.8530,300.298317,300.290373
2.8540,300.297015,300.283786
2.8550,300.295349,300.258396
2.8560,300.293325,300.286313
2.8570,300.290952,300.281226
2.8580,300.288237,300.285838
2.8590,300.285191,300.322521
2.8600,300.281824,300.265205
2.8610,300.278149,300.305773
2.8620,300.274179,300.287232
2.8630,300.269929,300.293128
2.8640,300.265412,300.288098
2.8650,300.260645,300.280497
2.8660,300.255643,300.273035
2.8670,300.250424,300.273944
2.8680,300.245006,300.245609
2.8690,300.239405,300.257085
2.8700,300.233640,300.233447
2.8710,300.227729,300.214192
2.8720,300.221691,300.209354
2.8730,300.215542,300.215828
2.8740,300.209303,300.188799
2.8750,300.202990,300.190420
2.8760,300.196622,300.174113
2.8770,300.190215,300.185411
2.8780,300.183788,300.182660
2.8790,300.177356,300.193410
2.8800,300.170935,300.172904
2.8810,300.164541,300.181109
2.8820,300.158188,300.174602
2.8830,300.151890,300.184683
2.8840,300.145661,300.161124
2.8850,300.139513,300.170570
2.8860,300.133457,300.154115
2.8870,300.127505,300.146604
2.8880,300.121666,300.137877
2.8890,300.115950,300.128166
2.8900,300.110364,300.112692
2.8910,300.104916,300.104351
2.8920,300.099612,300.107083
2.8930,300.094458,300.091555
2.8940,300.089459,300.082530
2.8950,300.084619,300.063441
2.8960,300.079940,300.055382
2.8970,300.075426,300.072132
2.8980,300.071078,300.071394
2.8990,300.066897,300.078732
2.9000,300.062883,300.060110
2.9010,300.059037,300.066166
2.9020,300.055356,300.053939
2.9030,300.051840,300.067296
2.9040,300.048486,300.080652
2.9050,300.045293,300.063786
2.9060,300.042258,300.070820
2.9070,300.039376,300.056766
2.9080,300.036645,300.054735
2.9090,300.034061,300.031837
2.9100,300.031620,300.035523
2.9110,300.029317,299.996255
2.9120,300.027147,300.016532
2.9130,300.025107,299.995611
2.9140,300.023191,300.019198
2.9150,300.021395,300.012116
2.9160,300.019713,300.008285
2.9170,300.018141,300.020077
2.9180,300.016673,299.998314
2.9190,300.015305,300.029464
2.9200,300.014031,300.026199
2.9210,300.012848,300.019488
2.9220,300.011749,300.037666
2.9230,300.010731,300.018634
2.9240,300.009789,300.023331
2.9250,300.008919,300.025579
2.9260,300.008116,300.024573
2.9270,300.007375,300.015697
2.9280,300.006694,300.033368
2.9290,300.006069,300.012329
2.9300,300.000000,300.006174
2.9310,300.000000,299.990746
2.9320,300.000000,299.972649
2.9330,300.000000,299.989112
2.9340,300.000000,299.964429
2.9350,300.000000,299.981867
2.9360,300.000000,299.969831
2.9370,300.000000,300.006209
2.9380,300.000000,299.999856
2.9390,300.000000,299.997356
2.9400,300.000000,300.015098
2.9410,300.000000,300.000160
2.9420,300.000000,300.019615
2.9430,300.000000,300.020585
2.9440,300.000000,300.024050
2.9450,300.000000,300.035094
2.9460,300.000000,300.028699
2.9470,300.000000,300.021402
2.9480,300.000000,299.997524
2.9490,300.000000,299.998879
2.9500,300.000000,300.001055
2.9510,300.000000,299.997018
2.9520,300.000000,299.979189
2.9530,300.000000,300.010166
2.9540,300.000000,299.998356
2.9550,300.000000,299.988217
2.9560,300.000000,299.983878
2.9570,300.000000,299.983859
2.9580,300.000000,299.980870
2.9590,300.000000,299.996723
2.9600,300.000000,300.004689
2.9610,300.000000,299.995858
2.9620,300.000000,300.017176
2.9630,300.000000,300.016690
2.9640,300.000000,300.001989
2.9650,300.000000,300.013426
2.9660,300.000000,300.016898
2.9670,300.000000,300.037054
2.9680,300.000000,300.019302
2.9690,300.000000,299.994791
2.9700,300.000000,300.006810
2.9710,300.000000,299.980280
2.9720,300.000000,300.000989
2.9730,300.000000,299.981011
2.9740,300.000000,299.981930
2.9750,300.000000,299.995130
2.9760,300.000000,299.969964
2.9770,300.000000,299.971690
2.9780,300.000000,299.984234
2.9790,300.000000,300.006014
2.9800,300.000000,299.986602
2.9810,300.000000,299.979640
2.9820,300.000000,300.009010
2.9830,300.000000,300.023449
2.9840,300.000000,300.032760
2.9850,300.000000,300.017090
2.9860,300.000000,300.016614
2.9870,300.000000,300.029412
2.9880,300.000000,299.994737
2.9890,300.000000,300.003960
2.9900,300.000000,300.003554
2.9910,300.000000,299.999948
2.9920,300.000000,299.984768
2.9930,300.000000,299.985772
2.9940,300.000000,299.957690
2.9950,300.000000,299.974998
2.9960,300.000000,299.987081
2.9970,300.000000,299.975550
2.9980,300.000000,299.990374
2.9990,300.000000,299.999814
3.0000,300.000000,299.998087
3.0010,300.000000,300.009384
3.0020,300.000000,300.003614
3.0030,300.000000,300.015587
3.0040,300.000000,300.026583
3.0050,300.000000,300.023016
3.0060,300.000000,300.014589
3.0070,300.000000,300.019843
3.0080,300.000000,300.020310
3.0090,300.000000,299.987076
3.0100,300.000000,300.012973
3.0110,300.000000,299.991827
3.0120,300.000000,299.993856
3.0130,300.000000,299.997137
3.0140,300.000000,299.968595
3.0150,300.000000,299.974226
3.0160,300.000000,299.979401
3.0170,300.000000,299.977278
3.0180,300.000000,300.006877
3.0190,300.000000,299.986524
3.0200,300.000000,299.995704
3.0210,300.000000,300.009472
3.0220,300.000000,300.000970
3.0230,300.000000,300.013448
3.0240,300.000000,300.023409
3.0250,300.000000,300.017873
3.0260,300.000000,300.019277
3.0270,300.000000,300.012065
3.0280,300.000000,299.997778
3.0290,300.000000,300.010552
3.0300,300.000000,300.018694
3.0310,300.000000,299.995137
3.0320,300.000000,299.991619
3.0330,300.000000,299.991858
3.0340,300.000000,299.969386
3.0350,300.000000,299.998115
3.0360,300.000000,299.984081
3.0370,300.000000,300.001206
3.0380,300.000000,299.981971
3.0390,300.000000,300.013047
3.0400,300.000000,300.008788
3.0410,300.000000,300.012737
3.0420,300.000000,300.015112
3.0430,300.000000,300.014700
3.0440,300.000000,300.032022
3.0450,300.000000,300.022389
3.0460,300.000000,300.000325
3.0470,300.000000,300.005973
3.0480,300.000000,300.010852
3.0490,300.000000,300.010225
3.0500,300.000000,300.000369
3.0510,300.000000,300.006935
3.0520,300.000000,299.969649
3.0530,300.000000,299.986162
3.0540,300.000000,299.963696
3.0550,300.000000,299.988484
3.0560,300.000000,299.980912
3.0570,300.000000,299.988884
3.0580,300.000000,299.980465
3.0590,300.000000,300.007464
3.0600,300.000000,300.011258
3.0610,300.000000,300.012847
3.0620,300.000000,300.011283
3.0630,300.000000,300.022793
3.0640,300.000000,300.012757
3.0650,300.000000,300.029351
3.0660,300.000000,300.036303
3.0670,300.000000,300.027665
3.0680,300.000000,300.005229
3.0690,300.000000,300.010556
3.0700,300.000000,299.987821
3.0710,300.000000,300.000288
3.0720,300.000000,299.993486
3.0730,300.000000,299.965849
3.0740,300.000000,299.970080
3.0750,300.000000,299.977880
3.0760,300.000000,299.978673
3.0770,300.000000,299.972420
3.0780,300.000000,299.992821
3.0790,300.000000,299.997013
3.0800,300.000000,299.998728
3.0810,300.000000,299.999285
3.0820,300.000000,300.022898
3.0830,300.000000,300.033382
3.0840,300.000000,300.014825
3.0850,300.000000,300.014511
3.0860,300.000000,300.024558
3.0870,300.000000,300.013217
3.0880,300.000000,300.010972
3.0890,300.000000,300.014179
3.0900,300.000000,299.981502
3.0910,300.000000,300.007591
3.0920,300.000000,299.989552
3.0930,300.000000,299.980278
3.0940,300.000000,299.980653
3.0950,300.000000,299.980184
3.0960,300.000000,299.964219
3.0970,300.000000,299.999315
3.0980,300.000000,299.989196
3.0990,300.000000,299.998782
3.1000,300.000000,300.010041
3.1010,300.000000,299.996487
3.1020,300.000000,300.017002
3.1030,300.000000,300.014009
3.1040,300.000000,300.027988
3.1050,300.000000,299.999220
3.1060,300.000000,300.018516
3.1070,300.000000,300.010632
3.1080,300.000000,300.016552
3.1090,300.000000,300.011348
3.1100,300.000000,299.993385
3.1110,300.000000,299.987153
3.1120,300.000000,299.987587
3.1130,300.000000,299.975296
3.1140,300.000000,299.989836
3.1150,300.000000,299.976739
3.1160,300.000000,299.952334
3.1170,300.000000,299.980491
3.1180,300.000000,299.978273
3.1190,300.000000,299.977915
3.1200,300.000000,299.988028
3.1210,300.000000,300.007671
3.1220,300.000000,300.025433
3.1230,300.000000,300.019698
3.1240,300.000000,300.013336
3.1250,300.000000,300.024934
3.1260,300.000000,300.014800
3.1270,300.000000,300.009599
3.1280,300.000000,300.000571
3.1290,300.000000,299.989016
3.1300,300.000000,299.996449
3.1310,300.000000,299.995744
3.1320,300.000000,299.987617
3.1330,300.000000,299.979994
3.1340,300.000000,299.971850
3.1350,300.000000,299.986406
3.1360,300.000000,299.968126
3.1370,300.000000,299.991894
3.1380,300.000000,299.978531
3.1390,300.000000,299.986600
3.1400,300.000000,299.985632
3.1410,300.000000,300.001462
3.1420,300.000000,300.021800
3.1430,300.000000,300.021623
3.1440,300.000000,300.029087
3.1450,300.000000,300.025499
3.1460,300.000000,300.008257
3.1470,300.000000,300.013141
3.1480,300.000000,300.004218
3.1490,300.000000,300.019746
3.1500,300.000000,299.988288
3.1510,300.000000,300.003009
3.1520,300.000000,299.997422
3.1530,300.000000,300.002360
3.1540,300.000000,299.977122
3.1550,300.000000,299.987359
3.1560,300.000000,300.004027
3.1570,300.000000,299.977871
3.1580,300.000000,299.973118
3.1590,300.000000,299.975240
3.1600,300.000000,300.007344
3.1610,300.000000,299.987562
3.1620,300.000000,300.008242
3.1630,300.000000,300.020759
3.1640,300.000000,300.021075
3.1650,300.000000,300.024453
3.1660,300.000000,300.021439
3.1670,300.000000,300.029160
3.1680,300.000000,300.002421
3.1690,300.000000,299.999595
3.1700,300.000000,299.992455
3.1710,300.000000,300.002300
3.1720,300.000000,299.997423
3.1730,300.000000,299.988503
3.1740,300.000000,299.992982
3.1750,300.000000,299.968385
3.1760,300.000000,299.997813
3.1770,300.000000,299.999211
3.1780,300.000000,299.995757
3.1790,300.000000,300.011791
3.1800,300.000000,299.983584
3.1810,300.000000,300.001083
3.1820,300.000000,300.004547
3.1830,300.000000,300.023537
3.1840,300.000000,300.008658
3.1850,300.000000,300.027711
3.1860,300.000000,300.032860
3.1870,300.000000,300.023263
3.1880,300.000000,300.014721
3.1890,300.000000,299.996427
3.1900,300.000000,299.991654
3.1910,300.000000,300.006436
3.1920,300.000000,299.996155
3.1930,300.000000,299.983545
3.1940,300.000000,299.976913
3.1950,300.000000,299.959852
3.1960,300.000000,299.970378
3.1970,300.000000,300.003039
3.1980,300.000000,299.975543
3.1990,300.000000,299.995816
3.2000,300.000000,300.010173
3.2010,300.000000,299.993728
3.2020,300.000000,300.013697
3.2030,300.000000,300.025652
3.2040,300.000000,300.019236
3.2050,300.000000,300.048772
3.2060,300.000000,300.002421
3.2070,300.000000,300.026852
3.2080,300.000000,300.010110
3.2090,300.000000,300.013980
3.2100,300.000000,300.004491
3.2110,300.000000,299.986564
3.2120,300.000000,299.990609
3.2130,300.000000,299.965313
3.2140,300.000000,299.987082
3.2150,300.000000,299.983051
3.2160,300.000000,299.987433
3.2170,300.000000,299.994467
3.2180,300.000000,299.991985
3.2190,300.000000,299.995363
3.2200,300.000000,299.991250
3.2210,300.000000,299.999117
3.2220,300.000000,300.023681
3.2230,300.000000,300.030600
3.2240,300.000000,300.016695
3.2250,300.000000,300.020513
3.2260,300.000000,300.010027
3.2270,300.000000,300.027958
3.2280,300.000000,300.018459
3.2290,300.000000,300.025640
3.2300,300.000000,299.991263
3.2310,300.000000,299.990084
3.2320,300.000000,299.990602
3.2330,300.000000,299.990327
3.2340,300.000000,299.978863
3.2350,300.000000,299.971310
3.2360,300.000000,299.989831
3.2370,300.000000,299.991068
3.2380,300.000000,299.979118
3.2390,300.000000,300.007409
3.2400,300.000000,300.011736
3.2410,300.000000,300.007556
3.2420,300.000000,300.012584
3.2430,300.000000,300.021752
3.2440,300.000000,300.010434
3.2450,300.000000,300.020329
3.2460,300.000000,299.997525
3.2470,300.000000,300.024972
3.2480,300.000000,299.996167
3.2490,300.000000,300.021240
3.2500,300.000000,299.996723
3.2510,300.000000,299.991726
3.2520,300.000000,299.981989
3.2530,300.000000,299.980961
3.2540,300.000000,299.995185
3.2550,300.000000,299.955142
3.2560,300.000000,299.993768
3.2570,300.000000,299.987218
3.2580,300.000000,299.976192
3.2590,300.000000,299.983084
3.2600,300.000000,300.016780
3.2610,300.000000,299.996741
3.2620,300.000000,300.000237
3.2630,300.000000,300.027568
3.2640,300.000000,300.022421
3.2650,300.000000,300.010634
3.2660,300.000000,300.021200
3.2670,300.000000,300.005935
3.2680,300.000000,300.022776
3.2690,300.000000,300.016805
3.2700,300.000000,300.005331
3.2710,300.000000,299.997446
3.2720,300.000000,300.005866
3.2730,300.000000,299.983826
3.2740,300.000000,299.969169
3.2750,300.000000,299.984503
3.2760,300.000000,300.001847
3.2770,300.000000,299.973680
3.2780,300.000000,299.984637
3.2790,300.000000,299.997991
3.2800,300.000000,299.999467
3.2810,300.000000,299.996363
3.2820,300.000000,300.022980
3.2830,300.000000,300.039386
3.2840,300.000000,300.020987
3.2850,300.000000,300.010964
3.2860,300.000000,300.003536
3.2870,300.000000,300.018764
3.2880,300.000000,300.022798
3.2890,300.000000,300.010936
3.2900,300.000000,299.999979
3.2910,300.000000,299.987930
3.2920,300.000000,299.977326
3.2930,300.000000,299.992170
3.2940,300.000000,299.990119
3.2950,300.000000,299.964545
3.2960,300.000000,299.996879
3.2970,300.000000,299.989562
3.2980,300.000000,300.002242
3.2990,300.000000,299.980400
3.3000,300.000000,299.986343
3.3010,300.000000,300.004692
3.3020,300.000000,300.016785
3.3030,300.000000,300.034145
3.3040,300.000000,300.026083
3.3050,300.000000,300.017574
3.3060,300.000000,300.008758
3.3070,300.000000,300.028481
3.3080,300.000000,300.002109
3.3090,300.000000,300.022466
3.3100,300.000000,299.997157
3.3110,300.000000,300.009726
3.3120,300.000000,299.995034
3.3130,300.000000,299.982450
3.3140,300.000000,299.975785
3.3150,300.000000,299.976591
3.3160,300.000000,299.985262
3.3170,300.000000,299.984591
3.3180,300.000000,299.982306
3.3190,300.000000,299.992163
3.3200,300.000000,300.000786
3.3210,300.000000,299.984893
3.3220,300.000000,300.016337
3.3230,300.000000,300.006383
3.3240,300.000000,300.007488
3.3250,300.000000,300.003127
3.3260,300.000000,300.001082
3.3270,300.000000,300.002626
3.3280,300.000000,300.004666
3.3290,300.000000,300.025713
3.3300,300.000000,299.994741
3.3310,300.000000,299.995597
3.3320,300.000000,299.992249
3.3330,300.000000,299.985130
3.3340,300.000000,299.980204
3.3350,300.000000,299.968047
3.3360,300.000000,299.995488
3.3370,300.000000,300.001892
3.3380,300.000000,299.971418
3.3390,300.000000,299.983579
3.3400,300.000000,299.997202
3.3410,300.000000,299.996535
3.3420,300.000000,300.016815
3.3430,300.000000,300.008898
3.3440,300.000000,300.040672
3.3450,300.000000,300.031905
3.3460,300.000000,300.021147
3.3470,300.000000,300.026450
3.3480,300.000000,300.022815
3.3490,300.000000,300.000541
3.3500,300.000000,299.991838
3.3510,300.000000,299.994601
3.3520,300.000000,299.996860
3.3530,300.000000,299.985210
3.3540,300.000000,299.965209
3.3550,300.000000,299.971971
3.3560,300.000000,299.980239
3.3570,300.000000,299.983062
3.3580,300.000000,300.007969
3.3590,300.000000,299.979959
3.3600,300.000000,300.005055
3.3610,300.000000,300.021071
3.3620,300.000000,300.034469
3.3630,300.000000,300.012135
3.3640,300.000000,300.023934
3.3650,300.000000,300.025696
3.3660,300.000000,300.020974
3.3670,300.000000,300.015190
3.3680,300.000000,300.016114
3.3690,300.000000,299.980856
3.3700,300.000000,300.006819
3.3710,300.000000,299.995079
3.3720,300.000000,299.986017
3.3730,300.000000,300.004286
3.3740,300.000000,299.974227
3.3750,300.000000,299.975966
3.3760,300.000000,300.000891
3.3770,300.000000,299.975496
3.3780,300.000000,299.982739
3.3790,300.000000,299.992345
3.3800,300.000000,300.008403
3.3810,300.000000,300.008254
3.3820,300.000000,299.998825
3.3830,300.000000,300.010854
3.3840,300.000000,300.012942
3.3850,300.000000,300.019222
3.3860,300.000000,300.023273
3.3870,300.000000,300.020356
3.3880,300.000000,299.993989
3.3890,300.000000,300.016813
3.3900,300.000000,300.002518
3.3910,300.000000,300.007657
3.3920,300.000000,299.992678
3.3930,300.000000,299.994824
3.3940,300.000000,299.985635
3.3950,300.000000,299.993452
3.3960,300.000000,299.986191
3.3970,300.000000,299.982830
3.3980,300.000000,300.010957
3.3990,300.001832,300.004530
3.4000,300.002231,300.007957
3.4010,300.002705,299.996110
3.4020,300.003263,300.002122
3.4030,300.003916,300.023010
3.4040,300.004677,300.025139
3.4050,300.005558,300.019401
3.4060,300.006571,300.026986
3.4070,300.007730,300.039780
3.4080,300.009049,300.027741
3.4090,300.010540,300.005292
3.4100,300.012215,300.011081
3.4110,300.014086,299.999836
3.4120,300.016162,300.000509
3.4130,300.018452,299.998114
3.4140,300.020961,299.997142
3.4150,300.023693,299.991119
3.4160,300.026647,300.006326
3.4170,300.029820,300.008009
3.4180,300.033204,299.992128
3.4190,300.036788,300.051111
3.4200,300.040555,300.051416
3.4210,300.044486,300.046875
3.4220,300.048554,300.060468
3.4230,300.052729,300.057163
3.4240,300.056978,300.092926
3.4250,300.061263,300.100203
3.4260,300.065541,300.086095
3.4270,300.069768,300.096149
3.4280,300.073897,300.087370
3.4290,300.077880,300.070657
3.4300,300.081669,300.077513
3.4310,300.085214,300.080314
3.4320,300.088471,300.072129
3.4330,300.091393,300.072985
3.4340,300.093941,300.073964
3.4350,300.096079,300.075226
3.4360,300.097775,300.079231
3.4370,300.099005,300.072172
3.4380,300.099750,300.080777
3.4390,300.100000,300.080925
3.4400,300.099750,300.109478
3.4410,300.099005,300.084077
3.4420,300.097775,300.121013
3.4430,300.096079,300.126068
3.4440,300.093941,300.109884
3.4450,300.091393,300.085304
3.4460,300.088471,300.103819
3.4470,300.085214,300.100692
3.4480,300.081669,300.083255
3.4490,300.077880,300.078844
3.4500,300.073897,300.089133
3.4510,300.069768,300.070169
3.4520,300.065541,300.044470
3.4530,300.061263,300.029035
3.4540,300.056978,300.034614
3.4550,300.052729,300.030520
3.4560,300.048554,300.034418
3.4570,300.044486,300.022873
3.4580,300.040555,300.033834
3.4590,300.036788,300.049876
3.4600,300.033204,300.041274
3.4610,300.029820,300.035432
3.4620,300.026647,300.036482
3.4630,300.023693,300.036215
3.4640,300.020961,300.051696
3.4650,300.018452,300.032084
3.4660,300.016162,300.035538
3.4670,300.014086,300.030679
3.4680,300.012215,300.018851
3.4690,300.010540,300.002892
3.4700,300.009049,300.012172
3.4710,300.007730,300.000831
3.4720,300.006571,299.999707
3.4730,300.005558,299.983928
3.4740,300.004677,299.997748
3.4750,300.003916,299.975030
3.4760,300.003263,300.001241
3.4770,300.002705,299.968925
3.4780,300.002231,299.994697
3.4790,300.000000,299.998445
3.4800,300.000000,299.991913
3.4810,300.000000,300.010290
3.4820,300.000000,300.024414
3.4830,300.000000,299.993873
3.4840,300.000000,300.023906
3.4850,300.000000,299.994922
3.4860,300.000000,300.009216
3.4870,300.000000,300.032321
3.4880,300.000000,300.005784
3.4890,300.000000,299.994284
3.4900,300.000000,299.997861
3.4910,300.000000,300.014336
3.4920,300.000000,299.969761
3.4930,300.000000,299.973137
3.4940,300.000000,299.995781
3.4950,300.000000,299.998401
3.4960,300.000000,299.979765
3.4970,300.000000,299.971247
3.4980,300.000000,300.009017
3.4990,300.000000,300.009575
3.5000,299.979209,299.985806
3.5010,299.959326,299.957187
3.5020,299.941221,299.952287
3.5030,299.925686,299.940059
3.5040,299.913397,299.935520
3.5050,299.904894,299.939194
3.5060,299.900548,299.928149
3.5070,299.918863,299.924052
3.5080,299.939591,299.964890
3.5090,299.975574,299.984660
3.5100,300.031085,300.037726
3.5110,300.110235,300.118487
3.5120,300.215702,300.192594
3.5130,300.347088,300.330309
3.5140,300.499352,300.474771
3.5150,300.641180,300.605253
3.5160,300.778801,300.762994
3.5170,300.894839,300.903517
3.5180,300.972604,300.942186
3.5190,301.000000,300.993231
3.5200,300.972604,300.978740
3.5210,300.894839,300.901976
3.5220,300.778801,300.789146
3.5230,300.641180,300.644085
3.5240,300.499352,300.520413
3.5250,300.367879,300.380019
3.5260,300.256376,300.253201
3.5270,300.169013,300.196838
3.5280,300.105399,300.126433
3.5290,300.062177,300.068563
3.5300,300.034697,300.036672
3.5310,300.000000,300.004242
3.5320,300.000000,299.990162
3.5330,300.000000,299.992530
3.5340,300.000000,299.977669
3.5350,300.000000,299.992780
3.5360,300.000000,299.983841
3.5370,300.000000,299.985410
3.5380,300.000000,299.975188
3.5390,299.850000,299.846328
3.5400,299.870894,299.862208
3.5410,299.888877,299.888303
3.5420,299.904356,299.907581
3.5430,299.917678,299.922814
3.5440,299.929145,299.969026
3.5450,299.939015,299.971935
3.5460,299.947509,299.985336
3.5470,299.954821,299.958368
3.5480,299.961114,299.973172
3.5490,299.966530,299.959360
3.5500,299.971193,299.963814
3.5510,299.975205,299.959416
3.5520,299.978659,299.978866
3.5530,299.981632,299.961050
3.5540,299.984190,299.975408
3.5550,299.986392,299.971983
3.5560,299.988288,299.991846
3.5570,299.989919,299.958481
3.5580,299.991323,299.991691
3.5590,300.000000,300.004808
3.5600,300.000000,299.989784
3.5610,300.000000,300.015763
3.5620,300.000000,300.014622
3.5630,300.000000,300.013404
3.5640,300.000000,300.010274
3.5650,300.000000,300.012295
3.5660,300.000000,300.038998
3.5670,300.000000,300.015660
3.5680,300.000000,300.019043
3.5690,300.000000,299.997730
3.5700,300.000000,299.991653
3.5710,300.000000,300.004085
3.5720,300.000000,299.974187
3.5730,300.000000,299.979099
3.5740,300.000000,299.980743
3.5750,300.000000,299.980531
3.5760,300.000000,299.978598
3.5770,300.000000,299.987180
3.5780,300.000000,299.994568
3.5790,300.000000,300.000554
3.5800,300.000000,299.989522
3.5810,300.000000,300.002712
3.5820,300.000000,300.023068
3.5830,300.000000,300.024484
3.5840,300.000000,300.004642
3.5850,300.000000,300.022857
3.5860,300.000000,299.998573
3.5870,300.000000,300.015976
3.5880,300.000000,300.030052
3.5890,300.000000,299.996012
3.5900,300.000000,299.990959
3.5910,300.000000,300.000754
3.5920,300.000000,299.972103
3.5930,300.000000,299.976770
3.5940,300.000000,299.986213
3.5950,300.000000,299.972919
3.5960,300.000000,299.977872
3.5970,300.000000,299.990506
3.5980,300.000000,299.991696
3.5990,300.005495,300.001210
3.6000,300.006069,300.001896
3.6010,300.006694,300.015785
3.6020,300.007375,300.017095
3.6030,300.008116,300.028066
3.6040,300.008919,300.022154
3.6050,300.009789,300.027138
3.6060,300.010731,300.019018
3.6070,300.011749,300.026736
3.6080,300.012848,300.015640
3.6090,300.014031,300.008209
3.6100,300.015305,300.017020
3.6110,300.016673,300.011739
3.6120,300.018141,300.013323
3.6130,300.019713,299.998322
3.6140,300.021395,300.005545
3.6150,300.023191,300.007780
3.6160,300.025107,300.009605
3.6170,300.027147,300.001772
3.6180,300.029317,300.018106
3.6190,300.031620,300.028123
3.6200,300.034061,300.033165
3.6210,300.036645,300.020982
3.6220,300.039376,300.051748
3.6230,300.042258,300.079565
3.6240,300.045293,300.059705
3.6250,300.048486,300.060186
3.6260,300.051840,300.073565
3.6270,300.055356,300.073620
3.6280,300.059037,300.081669
3.6290,300.062883,300.055424
3.6300,300.066897,300.073139
3.6310,300.071078,300.069720
3.6320,300.075426,300.061156
3.6330,300.079940,300.066043
3.6340,300.084619,300.074777
3.6350,300.089459,300.077056
3.6360,300.094458,300.062870
3.6370,300.099612,300.090485
3.6380,300.104916,300.091354
3.6390,300.110364,300.103741
3.6400,300.115950,300.115500
3.6410,300.121666,300.125151
3.6420,300.127505,300.149973
3.6430,300.133457,300.147584
3.6440,300.139513,300.146110
3.6450,300.145661,300.160486
3.6460,300.151890,300.171446
3.6470,300.158188,300.185396
3.6480,300.164541,300.181052
3.6490,300.170935,300.167322
3.6500,300.177356,300.200908
3.6510,300.183788,300.178943
3.6520,300.190215,300.189889
3.6530,300.196622,300.177588
3.6540,300.202990,300.187954
3.6550,300.209303,300.196336
3.6560,300.215542,300.207329
3.6570,300.221691,300.214697
3.6580,300.227729,300.223296
3.6590,300.233640,300.222897
3.6600,300.239405,300.232263
3.6610,300.245006,300.253075
3.6620,300.250424,300.270061
3.6630,300.255643,300.268132
3.6640,300.260645,300.288840
3.6650,300.265412,300.298448
3.6660,300.269929,300.278283
3.6670,300.274179,300.280474
3.6680,300.278149,300.286971
3.6690,300.281824,300.289537
3.6700,300.285191,300.278387
3.6710,300.288237,300.294007
3.6720,300.290952,300.281852
3.6730,300.293325,300.275941
3.6740,300.295349,300.260356
3.6750,300.297015,300.262230
3.6760,300.298317,300.280465
3.6770,300.299251,300.260090
3.6780,300.299813,300.296514
3.6790,300.300000,300.290555
3.6800,300.299813,300.330546
3.6810,300.299251,300.326798
3.6820,300.298317,300.306532
3.6830,300.297015,300.310390
3.6840,300.295349,300.322570
3.6850,300.293325,300.328586
3.6860,300.290952,300.291807
3.6870,300.288237,300.284753
3.6880,300.285191,300.288910
3.6890,300.281824,300.292001
3.6900,300.278149,300.281272
3.6910,300.274179,300.276835
3.6920,300.269929,300.244299
3.6930,300.265412,300.224178
3.6940,300.260645,300.248296
3.6950,300.255643,300.225438
3.6960,300.250424,300.209279
3.6970,300.245006,300.228321
3.6980,300.239405,300.233611
3.6990,300.233640,300.224253
3.7000,300.227729,300.221148
3.7010,300.221691,300.224259
3.7020,300.215542,300.221557
3.7030,300.209303,300.209952
3.7040,300.202990,300.212797
3.7050,300.196622,300.219751
3.7060,300.190215,300.210353
3.7070,300.183788,300.199532
3.7080,300.177356,300.177026
3.7090,300.170935,300.173150
3.7100,300.164541,300.140603
3.7110,300.158188,300.151608
3.7120,300.151890,300.152222
3.7130,300.145661,300.112521
3.7140,300.139513,300.112397
3.7150,300.133457,300.114496
3.7160,300.127505,300.118742
3.7170,300.121666,300.098716
3.7180,300.115950,300.094966
3.7190,300.110364,300.082171
3.7200,300.104916,300.103610
3.7210,300.099612,300.123855
3.7220,300.094458,300.106611
3.7230,300.089459,300.103022
3.7240,300.084619,300.104449
3.7250,300.079940,300.097399
3.7260,300.075426,300.083869
3.7270,300.071078,300.093024
3.7280,300.066897,300.078425
3.7290,300.062883,300.066736
3.7300,300.059037,300.046760
3.7310,300.055356,300.059669
3.7320,300.051840,300.044171
3.7330,300.048486,300.024198
3.7340,300.045293,300.033693
3.7350,300.042258,300.014665
3.7360,300.039376,300.009899
3.7370,300.036645,300.010213
3.7380,300.034061,300.001920
3.7390,300.031620,300.027461
3.7400,300.029317,300.008292
3.7410,300.027147,300.018311
3.7420,300.025107,300.013355
3.7430,300.023191,300.035739
3.7440,300.021395,300.036121
3.7450,300.019713,300.033634
3.7460,300.018141,300.023904
3.7470,300.016673,300.018279
3.7480,300.015305,300.028832
3.7490,300.014031,300.011813
3.7500,300.012848,300.013098
3.7510,300.011749,299.993783
3.7520,300.010731,299.997832
3.7530,300.009789,300.003667
3.7540,300.008919,299.992764
3.7550,300.008116,299.980975
3.7560,300.007375,299.987889
3.7570,300.006694,299.985049
3.7580,300.006069,299.991312
3.7590,300.000000,299.987463
3.7600,300.000000,299.995235
3.7610,300.000000,300.005158
3.7620,300.000000,299.998657
3.7630,300.000000,300.002835
3.7640,300.000000,300.001928
3.7650,300.000000,300.000767
3.7660,300.000000,300.003597
3.7670,300.000000,300.014501
3.7680,300.000000,299.999532
3.7690,300.000000,300.007999
3.7700,300.000000,299.997007
3.7710,300.000000,299.970772
3.7720,300.000000,299.991409
3.7730,300.000000,299.988520
3.7740,300.000000,299.967610
3.7750,300.000000,299.980749
3.7760,300.000000,299.968938
3.7770,300.000000,299.981298
3.7780,300.000000,299.972078
3.7790,300.000000,299.972344
3.7800,300.000000,299.992604
3.7810,300.000000,300.001352
3.7820,300.000000,300.004164
3.7830,300.000000,300.000702
3.7840,300.000000,300.011361
3.7850,300.000000,300.019008
3.7860,300.000000,300.014863
3.7870,300.000000,300.014272
3.7880,300.000000,300.001298
3.7890,300.000000,300.014117
3.7900,300.000000,299.984433
3.7910,300.000000,299.994866
3.7920,300.000000,299.996209
3.7930,300.000000,299.984750
3.7940,300.000000,299.975051
3.7950,300.000000,299.970790
3.7960,300.000000,299.987387
3.7970,300.000000,299.965613
3.7980,300.000000,299.974541
3.7990,300.000000,299.985817
3.8000,300.000000,300.008324
3.8010,300.000000,300.005900
3.8020,300.000000,299.997972
3.8030,300.000000,300.008949
3.8040,300.000000,300.008724
3.8050,300.000000,300.008723
3.8060,300.000000,300.024605
3.8070,300.000000,299.998232
3.8080,300.000000,300.023586
3.8090,300.000000,300.010180
3.8100,300.000000,300.006599
3.8110,300.000000,299.984855
3.8120,300.000000,299.982383
3.8130,300.000000,299.965100
3.8140,300.000000,299.971317
3.8150,300.000000,299.980495
3.8160,300.000000,299.989471
3.8170,300.000000,299.968253
3.8180,300.000000,299.980067
3.8190,300.000000,299.987758
3.8200,300.000000,299.981466
3.8210,300.000000,300.007490
3.8220,300.000000,299.999885
3.8230,300.000000,300.009568
3.8240,300.000000,300.009816
3.8250,300.000000,300.007393
3.8260,300.000000,300.014209
3.8270,300.000000,300.009255
3.8280,300.000000,300.003240
3.8290,300.000000,299.994070
3.8300,300.000000,299.998342
3.8310,300.000000,300.005474
3.8320,300.000000,299.984733
3.8330,300.000000,299.988842
3.8340,300.000000,299.962109
3.8350,300.000000,299.976582
3.8360,300.000000,299.964980
3.8370,300.000000,299.963997
3.8380,300.000000,299.975768
3.8390,300.000000,300.000627
3.8400,300.000000,300.004359
3.8410,300.000000,300.003440
3.8420,300.000000,299.991229
3.8430,300.000000,300.008988
3.8440,300.000000,300.016779
3.8450,300.000000,300.016467
3.8460,300.000000,299.995265
3.8470,300.000000,300.001929
3.8480,300.000000,300.005736
3.8490,300.000000,300.006135
3.8500,300.000000,299.972600
3.8510,300.000000,299.986729
3.8520,300.000000,299.984175
3.8530,300.000000,299.986785
3.8540,300.000000,299.982346
3.8550,300.000000,299.980234
3.8560,300.000000,299.967357
3.8570,300.000000,299.959086
3.8580,300.000000,299.978629
3.8590,300.000000,299.998120
3.8600,300.000000,300.008187
3.8610,300.000000,300.007507
3.8620,300.000000,300.010239
3.8630,300.000000,300.014135
3.8640,300.000000,300.007586
3.8650,300.000000,300.012794
3.8660,300.000000,300.029774
3.8670,300.000000,300.000785
3.8680,300.000000,300.021902
3.8690,300.000000,299.996926
3.8700,300.000000,300.007188
3.8710,300.000000,299.973652
3.8720,300.000000,299.987972
3.8730,300.000000,299.970288
3.8740,300.000000,299.960629
3.8750,300.000000,299.975955
3.8760,300.000000,299.984810
3.8770,300.000000,299.969074
3.8780,300.000000,299.966925
3.8790,300.000000,299.986538
3.8800,300.000000,299.992729
3.8810,300.000000,300.005234
3.8820,300.000000,300.014788
3.8830,300.000000,300.009089
3.8840,300.000000,300.031045
3.8850,300.000000,300.015677
3.8860,300.000000,300.008957
3.8870,300.000000,299.993431
3.8880,300.000000,300.002461
3.8890,300.000000,299.996114
3.8900,300.000000,300.002866
3.8910,300.000000,299.991673
3.8920,300.000000,299.969644
3.8930,300.000000,299.978701
3.8940,300.000000,299.980818
3.8950,300.000000,299.988369
3.8960,300.000000,299.982907
3.8970,300.000000,299.984446
3.8980,300.000000,299.981828
3.8990,300.000000,299.990650
3.9000,300.000000,300.005406
3.9010,300.000000,299.985728
3.9020,300.000000,300.001101
3.9030,300.000000,300.001258
3.9040,300.000000,300.015580
3.9050,300.000000,300.025033
3.9060,300.000000,300.005746
3.9070,300.000000,299.984936
3.9080,300.000000,300.000255
3.9090,300.000000,300.007900
3.9100,300.000000,299.997925
3.9110,300.000000,299.990613
3.9120,300.000000,299.977919
3.9130,300.000000,299.963467
3.9140,300.000000,299.978532
3.9150,300.000000,299.964020
3.9160,300.000000,299.995145
3.9170,300.000000,299.981813
3.9180,300.000000,299.974688
3.9190,300.000000,299.979918
3.9200,300.000000,299.991245
3.9210,300.000000,299.995922
3.9220,300.000000,300.015023
3.9230,300.000000,300.010105
3.9240,300.000000,300.003727
3.9250,300.000000,300.030888
3.9260,300.000000,300.011459
3.9270,300.000000,300.015775
3.9280,300.000000,299.997541
3.9290,300.000000,300.001640
3.9300,300.000000,299.994901
3.9310,300.000000,299.966674
3.9320,300.000000,300.000108
3.9330,300.000000,299.988398
3.9340,300.000000,299.968639
3.9350,300.000000,299.960570
3.9360,300.000000,299.976008
3.9370,300.000000,299.976200
3.9380,300.000000,299.983274
3.9390,300.000000,299.987169
3.9400,300.000000,299.996456
3.9410,300.000000,300.012006
3.9420,300.000000,300.008749
3.9430,300.000000,299.996956
3.9440,300.000000,300.023878
3.9450,300.000000,300.027597
3.9460,300.000000,300.041692
3.9470,300.000000,299.996054
3.9480,300.000000,300.005252
3.9490,300.000000,299.976386
3.9500,300.000000,299.996517
3.9510,300.000000,299.979282
3.9520,300.000000,299.998381
3.9530,300.000000,299.966934
3.9540,300.000000,299.954906
3.9550,300.000000,299.966065
3.9560,300.000000,299.951959
3.9570,300.000000,299.982024
3.9580,300.000000,299.958245
3.9590,300.000000,299.984713
3.9600,300.000000,299.969788
3.9610,300.000000,299.993501
3.9620,300.000000,300.018671
3.9630,300.000000,300.010225
3.9640,300.000000,300.000782
3.9650,300.000000,300.010040
3.9660,300.000000,300.009511
3.9670,300.000000,300.011173
3.9680,300.000000,299.988310
3.9690,300.000000,300.002285
3.9700,300.000000,299.963092
3.9710,300.000000,299.977613
3.9720,300.000000,299.973410
3.9730,300.000000,299.980157
3.9740,300.000000,299.971165
3.9750,300.000000,299.955860
3.9760,300.000000,299.961001
3.9770,300.000000,299.975634
3.9780,300.000000,299.977236
3.9790,300.000000,299.977767
3.9800,300.000000,299.984885
3.9810,300.000000,300.002791
3.9820,300.000000,299.996182
3.9830,300.000000,300.004858
3.9840,300.000000,300.030234
3.9850,300.000000,299.995231
3.9860,300.000000,299.989925
3.9870,300.000000,300.013393
3.9880,300.000000,299.994301
3.9890,300.000000,299.992284
3.9900,300.000000,299.981428
3.9910,300.000000,299.980415
3.9920,300.000000,299.993377
3.9930,300.000000,299.980942
3.9940,300.000000,299.978656
3.9950,300.000000,299.954846
3.9960,300.000000,299.958429
3.9970,300.000000,299.944344
3.9980,300.000000,299.969019
3.9990,300.000000,299.992208
4.0000,300.000000,299.993944
4.0010,300.000000,299.992692
4.0020,300.000000,300.000213
4.0030,300.000000,299.997924
4.0040,300.000000,300.009654
4.0050,300.000000,300.016196
4.0060,300.000000,299.991352
4.0070,300.000000,300.007618
4.0080,300.000000,300.009474
4.0090,300.000000,299.990375
4.0100,300.000000,299.995304
4.0110,300.000000,300.010215
4.0120,300.000000,299.975401
4.0130,300.000000,299.975905
4.0140,300.000000,299.961701
4.0150,300.000000,299.969867
4.0160,300.000000,299.973587
4.0170,300.000000,299.973724
4.0180,300.000000,299.965954
4.0190,300.000000,299.983741
4.0200,300.000000,300.002430
4.0210,300.000000,299.998426
4.0220,300.000000,300.009085
4.0230,300.000000,300.001470
4.0240,300.000000,300.014130
4.0250,300.000000,300.010352
4.0260,300.000000,299.997022
4.0270,300.000000,300.006825
4.0280,300.000000,299.989248
4.0290,300.000000,299.987210
4.0300,300.000000,299.989201
4.0310,300.000000,299.984049
4.0320,300.000000,299.963558
4.0330,300.000000,299.981515
4.0340,300.000000,299.973803
4.0350,300.000000,299.960006
4.0360,300.000000,299.952605
4.0370,300.000000,299.969321
4.0380,300.000000,299.970684
4.0390,300.000000,299.981798
4.0400,300.000000,299.983164
4.0410,300.000000,299.972850
4.0420,300.000000,299.994564
4.0430,300.000000,299.999764
4.0440,300.000000,300.011945
4.0450,300.000000,299.999553
4.0460,300.000000,300.022290
4.0470,300.000000,299.983494
4.0480,300.000000,300.011245
4.0490,300.000000,299.990262
4.0500,300.000000,299.994867
4.0510,300.000000,299.980836
4.0520,300.000000,299.985805
4.0530,300.000000,299.966058
4.0540,300.000000,299.956051
4.0550,300.000000,299.980210
4.0560,300.000000,299.965796
4.0570,300.000000,299.971933
4.0580,300.000000,299.986436
4.0590,300.000000,299.969290
4.0600,300.000000,299.991691
4.0610,300.000000,299.985963
4.0620,300.000000,299.996061
4.0630,300.000000,300.002476
4.0640,300.000000,299.989537
4.0650,300.000000,299.997675
4.0660,300.000000,300.017940
4.0670,300.000000,300.010396
4.0680,300.000000,299.996428
4.0690,300.000000,299.993855
4.0700,300.000000,299.982246
4.0710,300.000000,299.992518
4.0720,300.000000,299.971318
4.0730,300.000000,299.971160
4.0740,300.000000,299.977405
4.0750,300.000000,299.957136
4.0760,300.000000,299.981421
4.0770,300.000000,299.953313
4.0780,300.000000,299.989282
4.0790,300.000000,299.974778
4.0800,300.000000,299.982202
4.0810,300.000000,299.971852
4.0820,300.000000,299.991723
4.0830,300.000000,299.990241
4.0840,300.000000,299.997346
4.0850,300.000000,300.002971
4.0860,300.000000,300.012886
4.0870,300.000000,300.002486
4.0880,300.000000,299.999005
4.0890,300.000000,299.979340
4.0900,300.000000,299.975250
4.0910,300.000000,299.995807
4.0920,300.000000,299.964834
4.0930,300.000000,299.984266
4.0940,300.000000,299.962374
4.0950,300.000000,299.963790
4.0960,300.000000,299.975392
4.0970,300.000000,299.980189
4.0980,300.000000,299.970728
4.0990,300.000000,299.973471
4.1000,300.000000,299.982915
4.1010,300.000000,299.992976
4.1020,300.000000,300.004025
4.1030,300.000000,299.999520
4.1040,300.000000,300.008448
4.1050,300.000000,300.019562
4.1060,300.000000,300.005953
4.1070,300.000000,300.002356
4.1080,300.000000,299.979566
4.1090,300.000000,299.962813
4.1100,300.000000,299.986764
4.1110,300.000000,299.975691
4.1120,300.000000,299.965856
4.1130,300.000000,299.968954
4.1140,300.000000,299.963014
4.1150,300.000000,299.973856
4.1160,300.000000,299.964357
4.1170,300.000000,299.958807
4.1180,300.000000,299.980542
4.1190,300.000000,299.973983
4.1200,300.000000,299.987539
4.1210,300.000000,299.983618
4.1220,300.000000,299.987408
4.1230,300.000000,299.999111
4.1240,300.000000,300.001177
4.1250,300.000000,300.006764
4.1260,300.000000,299.998239
4.1270,300.000000,299.979659
4.1280,300.000000,299.989208
4.1290,300.000000,299.995836
4.1300,300.000000,299.978682
4.1310,300.000000,299.972949
4.1320,300.000000,299.979638
4.1330,300.000000,299.958167
4.1340,300.000000,299.946956
4.1350,300.000000,299.959736
