time_s,ecg_clean_mv,ecg_noisy_mv
0.0000,350.000000,350.003386
0.0010,350.000000,350.013126
0.0020,350.000000,350.013575
0.0030,350.000000,350.008110
0.0040,350.000000,350.026110
0.0050,350.000000,350.022411
0.0060,350.000000,350.031041
0.0070,350.000000,350.013835
0.0080,350.000000,350.013401
0.0090,350.000000,349.997597
0.0100,350.000000,350.008527
0.0110,350.000000,350.004874
0.0120,350.000000,349.984703
0.0130,350.000000,349.981971
0.0140,350.000000,349.973864
0.0150,350.000000,349.973687
0.0160,350.000000,349.986342
0.0170,350.000000,349.980395
0.0180,350.000000,349.993765
0.0190,350.000000,349.996759
0.0200,350.000000,350.010528
0.0210,350.000000,350.009027
0.0220,350.000000,350.027765
0.0230,350.000000,350.039621
0.0240,350.000000,350.014650
0.0250,350.000000,350.028916
0.0260,350.000000,350.027963
0.0270,350.000000,350.019796
0.0280,350.000000,350.023699
0.0290,350.000000,350.022939
0.0300,350.000000,349.990991
0.0310,350.000000,349.983196
0.0320,350.000000,350.006388
0.0330,350.000000,349.986128
0.0340,350.000000,349.985578
0.0350,350.000000,349.975365
0.0360,350.000000,349.985668
0.0370,350.000000,349.999900
0.0380,350.000000,349.998455
0.0390,350.000000,350.002942
0.0400,350.000000,349.994882
0.0410,350.000000,350.022626
0.0420,350.000000,350.023678
0.0430,350.000000,350.024272
0.0440,350.000000,350.037911
0.0450,350.000000,350.027388
0.0460,350.000000,350.037708
0.0470,350.000000,350.039774
0.0480,350.000000,350.026189
0.0490,350.000000,350.015098
0.0500,350.002198,350.008920
0.0510,350.002678,350.009848
0.0520,350.003246,349.997434
0.0530,350.003916,350.015407
0.0540,350.004700,349.982755
0.0550,350.005612,349.993001
0.0560,350.006669,349.998677
0.0570,350.007885,350.002575
0.0580,350.009277,350.003787
0.0590,350.010859,350.026629
0.0600,350.012648,350.031536
0.0610,350.014658,350.041772
0.0620,350.016903,350.039671
0.0630,350.019395,350.049818
0.0640,350.022142,350.063328
0.0650,350.025153,350.055029
0.0660,350.028431,350.071486
0.0670,350.031976,350.065715
0.0680,350.035784,350.073762
0.0690,350.039845,350.059420
0.0700,350.044146,350.074464
0.0710,350.048667,350.060564
0.0720,350.053383,350.059694
0.0730,350.058264,350.049787
0.0740,350.063275,350.059181
0.0750,350.068374,350.056909
0.0760,350.073515,350.055521
0.0770,350.078649,350.075046
0.0780,350.083721,350.096520
0.0790,350.088676,350.098575
0.0800,350.093456,350.109156
0.0810,350.098002,350.121237
0.0820,350.102257,350.152799
0.0830,350.106165,350.149175
0.0840,350.109672,350.138728
0.0850,350.112730,350.151560
0.0860,350.115295,350.154313
0.0870,350.117330,350.150601
0.0880,350.118806,350.153276
0.0890,350.119700,350.142598
0.0900,350.120000,350.136195
0.0910,350.119700,350.134033
0.0920,350.118806,350.113118
0.0930,350.117330,350.101674
0.0940,350.115295,350.123605
0.0950,350.112730,350.116844
0.0960,350.109672,350.111438
0.0970,350.106165,350.111050
0.0980,350.102257,350.108725
0.0990,350.098002,350.137026
0.1000,350.093456,350.117536
0.1010,350.088676,350.139717
0.1020,350.083721,350.137314
0.1030,350.078649,350.124965
0.1040,350.073515,350.118091
0.1050,350.068374,350.116156
0.1060,350.063275,350.106771
0.1070,350.058264,350.105469
0.1080,350.053383,350.097204
0.1090,350.048667,350.070836
0.1100,350.044146,350.089831
0.1110,350.039845,350.051174
0.1120,350.035784,350.025403
0.1130,350.031976,350.037345
0.1140,350.028431,350.022081
0.1150,350.025153,350.026611
0.1160,350.022142,350.025993
0.1170,350.019395,350.029871
0.1180,350.016903,350.037397
0.1190,350.014658,350.025958
0.1200,350.012648,350.036740
0.1210,350.010859,350.050925
0.1220,350.009277,350.045568
0.1230,350.007885,350.039949
0.1240,350.006669,350.062339
0.1250,350.005612,350.053202
0.1260,350.004700,350.050804
0.1270,350.003916,350.052848
0.1280,350.003246,350.046164
0.1290,350.002678,350.047072
0.1300,350.000000,350.019229
0.1310,350.000000,350.040125
0.1320,350.000000,350.004246
0.1330,350.000000,350.007369
0.1340,350.000000,350.000336
0.1350,350.000000,350.006775
0.1360,350.000000,350.007877
0.1370,350.000000,350.012689
0.1380,350.000000,350.018979
0.1390,350.000000,350.034252
0.1400,350.000000,350.032691
0.1410,350.000000,350.050183
0.1420,350.000000,350.031984
0.1430,350.000000,350.034043
0.1440,350.000000,350.056164
0.1450,350.000000,350.059160
0.1460,350.000000,350.051319
0.1470,350.000000,350.052321
0.1480,350.000000,350.055916
0.1490,350.000000,350.046206
0.1500,350.000000,350.031008
0.1510,349.975051,350.003085
0.1520,349.951192,349.977244
0.1530,349.929466,349.934522
0.1540,349.910823,349.916087
0.1550,349.896077,349.914213
0.1560,349.885873,349.884180
0.1570,349.880657,349.887708
0.1580,349.902636,349.914232
0.1590,349.927509,349.963065
0.1600,349.970689,349.997860
0.1610,350.037302,350.087123
0.1620,350.132282,350.179851
0.1630,350.258843,350.328997
0.1640,350.416506,350.477086
0.1650,350.599222,350.668705
0.1660,350.769416,350.833092
0.1670,350.934561,350.987757
0.1680,351.073807,351.125419
0.1690,351.167125,351.212433
0.1700,351.200000,351.234349
0.1710,351.167125,351.205075
0.1720,351.073807,351.118267
0.1730,350.934561,350.954772
0.1740,350.769416,350.791243
0.1750,350.599222,350.618590
0.1760,350.441455,350.437106
0.1770,350.307651,350.331741
0.1780,350.202816,350.232034
0.1790,350.126479,350.149085
0.1800,350.074612,350.100533
0.1810,350.041636,350.092917
0.1820,350.000000,350.067934
0.1830,350.000000,350.057345
0.1840,350.000000,350.061273
0.1850,350.000000,350.083785
0.1860,350.000000,350.071530
0.1870,350.000000,350.051456
0.1880,350.000000,350.050374
0.1890,350.000000,350.067039
0.1900,349.820000,349.857102
0.1910,349.845073,349.876013
0.1920,349.866653,349.900751
0.1930,349.885227,349.906759
0.1940,349.901214,349.925210
0.1950,349.914974,349.936768
0.1960,349.926817,349.946538
0.1970,349.937011,349.971194
0.1980,349.945785,349.965617
0.1990,349.953337,349.991217
0.2000,349.959837,349.999768
0.2010,349.965431,350.030773
0.2020,349.970246,350.027963
0.2030,349.974391,350.054409
0.2040,349.977958,350.042847
0.2050,349.981028,350.051555
0.2060,349.983671,350.061070
0.2070,349.985945,350.043802
0.2080,349.987903,350.060383
0.2090,349.989588,350.043729
0.2100,350.000000,350.050023
0.2110,350.000000,350.043898
0.2120,350.000000,350.032446
0.2130,350.000000,350.021481
0.2140,350.000000,350.025519
0.2150,350.000000,350.007715
0.2160,350.000000,350.014709
0.2170,350.000000,350.027698
0.2180,350.000000,350.046721
0.2190,350.000000,350.053384
0.2200,350.000000,350.056714
0.2210,350.000000,350.044196
0.2220,350.000000,350.065819
0.2230,350.000000,350.062052
0.2240,350.000000,350.072021
0.2250,350.000000,350.081583
0.2260,350.000000,350.078249
0.2270,350.000000,350.080056
0.2280,350.000000,350.053421
0.2290,350.000000,350.050035
0.2300,350.000000,350.063066
0.2310,350.000000,350.055985
0.2320,350.000000,350.037204
0.2330,350.000000,350.032050
0.2340,350.000000,350.038423
0.2350,350.000000,350.032335
0.2360,350.000000,350.034316
0.2370,350.000000,350.025688
0.2380,350.000000,350.047803
0.2390,350.000000,350.043914
0.2400,350.000000,350.042001
0.2410,350.000000,350.054517
0.2420,350.000000,350.062893
0.2430,350.000000,350.085015
0.2440,350.000000,350.071239
0.2450,350.000000,350.081275
0.2460,350.000000,350.060352
0.2470,350.000000,350.081531
0.2480,350.000000,350.062605
0.2490,350.000000,350.065585
0.2500,350.006594,350.064970
0.2510,350.007283,350.060394
0.2520,350.008033,350.052259
0.2530,350.008851,350.060635
0.2540,350.009739,350.044678
0.2550,350.010703,350.060996
0.2560,350.011747,350.050539
0.2570,350.012877,350.052384
0.2580,350.014099,350.064059
0.2590,350.015417,350.066719
0.2600,350.016837,350.077785
0.2610,350.018366,350.086124
0.2620,350.020007,350.093867
0.2630,350.021769,350.116115
0.2640,350.023656,350.122851
0.2650,350.025674,350.110690
0.2660,350.027830,350.119340
0.2670,350.030129,350.117970
0.2680,350.032577,350.114452
0.2690,350.035180,350.106191
0.2700,350.037944,350.102694
0.2710,350.040873,350.097678
0.2720,350.043974,350.083978
0.2730,350.047251,350.087379
0.2740,350.050709,350.078584
0.2750,350.054352,350.095446
0.2760,350.058184,350.099497
0.2770,350.062208,350.109283
0.2780,350.066427,350.107226
0.2790,350.070844,350.132455
0.2800,350.075460,350.140749
0.2810,350.080277,350.167282
0.2820,350.085294,350.167781
0.2830,350.090512,350.167284
0.2840,350.095929,350.170297
0.2850,350.101543,350.189839
0.2860,350.107351,350.184700
0.2870,350.113350,350.189853
0.2880,350.119534,350.189083
0.2890,350.125899,350.192041
0.2900,350.132437,350.207667
0.2910,350.139140,350.187771
0.2920,350.146000,350.192486
0.2930,350.153006,350.186342
0.2940,350.160149,350.188074
0.2950,350.167416,350.205786
0.2960,350.174793,350.218439
0.2970,350.182268,350.218665
0.2980,350.189825,350.228783
0.2990,350.197449,350.240486
0.3000,350.205122,350.271914
0.3010,350.212827,350.293555
0.3020,350.220546,350.289262
0.3030,350.228259,350.308733
0.3040,350.235946,350.333874
0.3050,350.243588,350.332527
0.3060,350.251163,350.340036
0.3070,350.258651,350.348163
0.3080,350.266029,350.343847
0.3090,350.273275,350.341929
0.3100,350.280368,350.350489
0.3110,350.287286,350.336685
0.3120,350.294007,350.335070
0.3130,350.300509,350.343826
0.3140,350.306772,350.358114
0.3150,350.312773,350.366747
0.3160,350.318494,350.360745
0.3170,350.323914,350.380217
0.3180,350.329015,350.395241
0.3190,350.333779,350.396145
0.3200,350.338189,350.412961
0.3210,350.342229,350.434460
0.3220,350.345884,350.424436
0.3230,350.349142,350.436909
0.3240,350.351990,350.458104
0.3250,350.354419,350.441582
0.3260,350.356418,350.451373
0.3270,350.357981,350.443456
0.3280,350.359101,350.455403
0.3290,350.359775,350.429198
0.3300,350.360000,350.431148
0.3310,350.359775,350.415867
0.3320,350.359101,350.405345
0.3330,350.357981,350.395662
0.3340,350.356418,350.404757
0.3350,350.354419,350.406969
0.3360,350.351990,350.402191
0.3370,350.349142,350.404681
0.3380,350.345884,350.401578
0.3390,350.342229,350.416162
0.3400,350.338189,350.417684
0.3410,350.333779,350.416070
0.3420,350.329015,350.418834
0.3430,350.323914,350.413870
0.3440,350.318494,350.431346
0.3450,350.312773,350.417900
0.3460,350.306772,350.403632
0.3470,350.300509,350.393599
0.3480,350.294007,350.380248
0.3490,350.287286,350.367761
0.3500,350.280368,350.357984
0.3510,350.273275,350.328046
0.3520,350.266029,350.325966
0.3530,350.258651,350.314419
0.3540,350.251163,350.304700
0.3550,350.243588,350.297609
0.3560,350.235946,350.290196
0.3570,350.228259,350.289098
0.3580,350.220546,350.282569
0.3590,350.212827,350.290720
0.3600,350.205122,350.287984
0.3610,350.197449,350.300627
0.3620,350.189825,350.287535
0.3630,350.182268,350.273906
0.3640,350.174793,350.274742
0.3650,350.167416,350.265928
0.3660,350.160149,350.261803
0.3670,350.153006,350.260164
0.3680,350.146000,350.236668
0.3690,350.139140,350.221353
0.3700,350.132437,350.216105
0.3710,350.125899,350.191691
0.3720,350.119534,350.178357
0.3730,350.113350,350.177106
0.3740,350.107351,350.150502
0.3750,350.101543,350.154182
0.3760,350.095929,350.160643
0.3770,350.090512,350.137311
0.3780,350.085294,350.138177
0.3790,350.080277,350.142656
0.3800,350.075460,350.135070
0.3810,350.070844,350.175084
0.3820,350.066427,350.163339
0.3830,350.062208,350.158293
0.3840,350.058184,350.152910
0.3850,350.054352,350.178375
0.3860,350.050709,350.161378
0.3870,350.047251,350.148434
0.3880,350.043974,350.150821
0.3890,350.040873,350.134573
0.3900,350.037944,350.117290
0.3910,350.035180,350.106464
0.3920,350.032577,350.097488
0.3930,350.030129,350.086514
0.3940,350.027830,350.098016
0.3950,350.025674,350.081838
0.3960,350.023656,350.096152
0.3970,350.021769,350.080407
0.3980,350.020007,350.085981
0.3990,350.018366,350.092390
0.4000,350.016837,350.094893
0.4010,350.015417,350.103577
0.4020,350.014099,350.118233
0.4030,350.012877,350.127720
0.4040,350.011747,350.122962
0.4050,350.010703,350.111361
0.4060,350.009739,350.114138
0.4070,350.008851,350.110194
0.4080,350.008033,350.122487
0.4090,350.007283,350.109512
0.4100,350.000000,350.096828
0.4110,350.000000,350.074212
0.4120,350.000000,350.063191
0.4130,350.000000,350.072841
0.4140,350.000000,350.061349
0.4150,350.000000,350.066373
0.4160,350.000000,350.068700
0.4170,350.000000,350.065833
0.4180,350.000000,350.082520
0.4190,350.000000,350.069679
0.4200,350.000000,350.089837
0.4210,350.000000,350.101990
0.4220,350.000000,350.117054
0.4230,350.000000,350.110008
0.4240,350.000000,350.122581
0.4250,350.000000,350.123413
0.4260,350.000000,350.131581
0.4270,350.000000,350.112250
0.4280,350.000000,350.120950
0.4290,350.000000,350.104506
0.4300,350.000000,350.078518
0.4310,350.000000,350.083786
0.4320,350.000000,350.069715
0.4330,350.000000,350.084161
0.4340,350.000000,350.070040
0.4350,350.000000,350.057141
0.4360,350.000000,350.076115
0.4370,350.000000,350.083215
0.4380,350.000000,350.074907
0.4390,350.000000,350.081427
0.4400,350.000000,350.094213
0.4410,350.000000,350.085710
0.4420,350.000000,350.112744
0.4430,350.000000,350.126085
0.4440,350.000000,350.110937
0.4450,350.000000,350.132241
0.4460,350.000000,350.124459
0.4470,350.000000,350.112654
0.4480,350.000000,350.113218
0.4490,350.000000,350.114408
0.4500,350.000000,350.095523
0.4510,350.000000,350.090290
0.4520,350.000000,350.076353
0.4530,350.000000,350.074546
0.4540,350.000000,350.077879
0.4550,350.000000,350.069832
0.4560,350.000000,350.068599
0.4570,350.000000,350.085420
0.4580,350.000000,350.085558
0.4590,350.000000,350.084724
0.4600,350.000000,350.110179
0.4610,350.000000,350.120658
0.4620,350.000000,350.118732
0.4630,350.000000,350.106543
0.4640,350.000000,350.122940
0.4650,350.000000,350.125742
0.4660,350.000000,350.107354
0.4670,350.000000,350.126335
0.4680,350.000000,350.113337
0.4690,350.000000,350.114128
0.4700,350.000000,350.095460
0.4710,350.000000,350.094536
0.4720,350.000000,350.088400
0.4730,350.000000,350.080517
0.4740,350.000000,350.079703
0.4750,350.000000,350.073674
0.4760,350.000000,350.066653
0.4770,350.000000,350.063366
0.4780,350.000000,350.080242
0.4790,350.000000,350.098370
0.4800,350.000000,350.091320
0.4810,350.000000,350.115706
0.4820,350.000000,350.125210
0.4830,350.000000,350.123343
0.4840,350.000000,350.121814
0.4850,350.000000,350.132684
0.4860,350.000000,350.132738
0.4870,350.000000,350.118443
0.4880,350.000000,350.115782
0.4890,350.000000,350.102075
0.4900,350.000000,350.103626
0.4910,350.000000,350.077554
0.4920,350.000000,350.085228
0.4930,350.000000,350.075602
0.4940,350.000000,350.078482
0.4950,350.000000,350.071819
0.4960,350.000000,350.064219
0.4970,350.000000,350.077870
0.4980,350.000000,350.084773
0.4990,350.000000,350.103958
0.5000,350.000000,350.097891
0.5010,350.000000,350.103823
0.5020,350.000000,350.107926
0.5030,350.000000,350.132077
0.5040,350.000000,350.124728
0.5050,350.000000,350.130032
0.5060,350.000000,350.114494
0.5070,350.000000,350.109563
0.5080,350.000000,350.111243
0.5090,350.000000,350.124918
0.5100,350.000000,350.095950
0.5110,350.000000,350.092421
0.5120,350.000000,350.091007
0.5130,350.000000,350.080758
0.5140,350.000000,350.086342
0.5150,350.000000,350.074855
0.5160,350.000000,350.074034
0.5170,350.000000,350.108157
0.5180,350.000000,350.084393
0.5190,350.000000,350.105102
0.5200,350.000000,350.098782
0.5210,350.000000,350.101572
0.5220,350.000000,350.120030
0.5230,350.000000,350.115497
0.5240,350.000000,350.126650
0.5250,350.000000,350.124764
0.5260,350.000000,350.140133
0.5270,350.000000,350.114535
0.5280,350.000000,350.127129
0.5290,350.000000,350.117473
0.5300,350.000000,350.106104
0.5310,350.000000,350.094615
0.5320,350.000000,350.095528
0.5330,350.000000,350.090803
0.5340,350.000000,350.088901
0.5350,350.000000,350.082583
0.5360,350.000000,350.076910
0.5370,350.000000,350.096665
0.5380,350.000000,350.095079
0.5390,350.000000,350.097052
0.5400,350.000000,350.101517
0.5410,350.000000,350.124484
0.5420,350.000000,350.135027
0.5430,350.000000,350.134022
0.5440,350.000000,350.138125
0.5450,350.000000,350.143697
0.5460,350.000000,350.130405
0.5470,350.000000,350.147120
0.5480,350.000000,350.116418
0.5490,350.000000,350.116413
0.5500,350.000000,350.104927
0.5510,350.000000,350.104348
0.5520,350.000000,350.111151
0.5530,350.000000,350.090242
0.5540,350.000000,350.092268
0.5550,350.000000,350.064611
0.5560,350.000000,350.092626
0.5570,350.000000,350.100756
0.5580,350.000000,350.099215
0.5590,350.000000,350.096545
0.5600,350.000000,350.103042
0.5610,350.000000,350.115779
0.5620,350.000000,350.117388
0.5630,350.000000,350.145129
0.5640,350.000000,350.139823
0.5650,350.000000,350.148967
0.5660,350.000000,350.134075
0.5670,350.000000,350.127014
0.5680,350.000000,350.122349
0.5690,350.000000,350.117736
0.5700,350.000000,350.110213
0.5710,350.000000,350.116677
0.5720,350.000000,350.107672
0.5730,350.000000,350.097371
0.5740,350.000000,350.078667
0.5750,350.000000,350.093281
0.5760,350.000000,350.089758
0.5770,350.000000,350.107053
0.5780,350.000000,350.108425
0.5790,350.000000,350.109238
0.5800,350.000000,350.098885
0.5810,350.000000,350.122142
0.5820,350.000000,350.124843
0.5830,350.000000,350.138770
0.5840,350.000000,350.129947
0.5850,350.000000,350.142505
0.5860,350.000000,350.121633
0.5870,350.000000,350.125032
0.5880,350.000000,350.123915
0.5890,350.000000,350.120041
0.5900,350.000000,350.120251
0.5910,350.000000,350.096629
0.5920,350.000000,350.098195
0.5930,350.000000,350.093235
0.5940,350.000000,350.100401
0.5950,350.000000,350.092334
0.5960,350.000000,350.087448
0.5970,350.000000,350.090110
0.5980,350.000000,350.099772
0.5990,350.000000,350.097841
0.6000,350.000000,350.131596
0.6010,350.000000,350.126114
0.6020,350.000000,350.125674
0.6030,350.000000,350.129999
0.6040,350.000000,350.132328
0.6050,350.000000,350.146273
0.6060,350.000000,350.129045
0.6070,350.000000,350.137581
0.6080,350.000000,350.138426
0.6090,350.000000,350.122600
0.6100,350.000000,350.111918
0.6110,350.000000,350.119439
0.6120,350.000000,350.097132
0.6130,350.000000,350.098797
0.6140,350.000000,350.098672
0.6150,350.000000,350.091882
0.6160,350.000000,350.088443
0.6170,350.000000,350.097110
0.6180,350.000000,350.109749
0.6190,350.000000,350.108028
0.6200,350.000000,350.125051
0.6210,350.000000,350.126924
0.6220,350.000000,350.130954
0.6230,350.000000,350.135439
0.6240,350.000000,350.146646
0.6250,350.000000,350.155117
0.6260,350.000000,350.146039
0.6270,350.000000,350.134074
0.6280,350.000000,350.145364
0.6290,350.000000,350.122983
0.6300,350.000000,350.136616
0.6310,350.000000,350.114217
0.6320,350.000000,350.101922
0.6330,350.000000,350.108245
0.6340,350.000000,350.098010
0.6350,350.000000,350.103004
0.6360,350.000000,350.101507
0.6370,350.000000,350.093281
0.6380,350.000000,350.109197
0.6390,350.000000,350.120593
0.6400,350.000000,350.125032
0.6410,350.000000,350.141728
0.6420,350.000000,350.141000
0.6430,350.000000,350.142012
0.6440,350.000000,350.149171
0.6450,350.000000,350.144856
0.6460,350.000000,350.150637
0.6470,350.000000,350.147349
0.6480,350.000000,350.129388
0.6490,350.000000,350.138920
0.6500,350.000000,350.143321
0.6510,350.000000,350.122536
0.6520,350.000000,350.095367
0.6530,350.000000,350.103014
0.6540,350.000000,350.092914
0.6550,350.000000,350.099770
0.6560,350.000000,350.108896
0.6570,350.000000,350.101200
0.6580,350.000000,350.127463
0.6590,350.000000,350.096158
0.6600,350.000000,350.124764
0.6610,350.000000,350.137327
0.6620,350.000000,350.131356
0.6630,350.000000,350.137846
0.6640,350.000000,350.156135
0.6650,350.000000,350.166814
0.6660,350.000000,350.166707
0.6670,350.000000,350.144283
0.6680,350.000000,350.152683
0.6690,350.000000,350.134758
0.6700,350.000000,350.135351
0.6710,350.000000,350.119041
0.6720,350.000000,350.105084
0.6730,350.000000,350.121791
0.6740,350.000000,350.120593
0.6750,350.000000,350.101276
0.6760,350.000000,350.113434
0.6770,350.000000,350.108314
0.6780,350.000000,350.132354
0.6790,350.000000,350.109777
0.6800,350.000000,350.127834
0.6810,350.000000,350.125221
0.6820,350.000000,350.130919
0.6830,350.000000,350.148117
0.6840,350.000000,350.148971
0.6850,350.000000,350.145781
0.6860,350.000000,350.159515
0.6870,350.000000,350.159920
0.6880,350.000000,350.148444
0.6890,350.000000,350.122757
0.6900,350.000000,350.133191
0.6910,350.000000,350.125817
0.6920,350.000000,350.109870
0.6930,350.000000,350.114185
0.6940,350.000000,350.104073
0.6950,350.000000,350.100510
0.6960,350.000000,350.098905
0.6970,350.000000,350.118568
0.6980,350.000000,350.127669
0.6990,350.000000,350.122999
0.7000,350.000000,350.139542
0.7010,350.000000,350.151409
0.7020,350.000000,350.147056
0.7030,350.000000,350.150812
0.7040,350.000000,350.158714
0.7050,350.000000,350.149546
0.7060,350.000000,350.159564
0.7070,350.000000,350.153105
0.7080,350.000000,350.136248
0.7090,350.000000,350.129767
0.7100,350.000000,350.124943
0.7110,350.000000,350.129625
0.7120,350.000000,350.116248
0.7130,350.000000,350.113552
0.7140,350.000000,350.121387
0.7150,350.000000,350.112938
0.7160,350.000000,350.105543
0.7170,350.000000,350.106309
0.7180,350.000000,350.122068
0.7190,350.000000,350.118662
0.7200,350.000000,350.143983
0.7210,350.000000,350.143454
0.7220,350.000000,350.149323
0.7230,350.000000,350.146071
0.7240,350.000000,350.162185
0.7250,350.000000,350.167543
0.7260,350.000000,350.156361
0.7270,350.000000,350.161579
0.7280,350.000000,350.145715
0.7290,350.000000,350.141874
0.7300,350.000000,350.151754
0.7310,350.000000,350.124786
0.7320,350.000000,350.125494
0.7330,350.000000,350.112863
0.7340,350.000000,350.114918
0.7350,350.000000,350.117177
0.7360,350.000000,350.105684
0.7370,350.000000,350.110766
0.7380,350.000000,350.126365
0.7390,350.000000,350.129914
0.7400,350.000000,350.145524
0.7410,350.000000,350.145826
0.7420,350.000000,350.165345
0.7430,350.000000,350.161453
0.7440,350.000000,350.174422
0.7450,350.000000,350.174189
0.7460,350.000000,350.154467
0.7470,350.000000,350.168142
0.7480,350.000000,350.158616
0.7490,350.000000,350.151470
0.7500,350.000000,350.146675
0.7510,350.000000,350.127409
0.7520,350.000000,350.125923
0.7530,350.000000,350.114724
0.7540,350.000000,350.133261
0.7550,350.000000,350.107687
0.7560,350.000000,350.104759
0.7570,350.000000,350.111957
0.7580,350.000000,350.123469
0.7590,350.000000,350.130206
0.7600,350.000000,350.145339
0.7610,350.000000,350.145983
0.7620,350.000000,350.148568
0.7630,350.000000,350.161799
0.7640,350.000000,350.170763
0.7650,350.000000,350.164376
0.7660,350.000000,350.168593
0.7670,350.000000,350.159001
0.7680,350.000000,350.151044
0.7690,350.000000,350.152118
0.7700,350.000000,350.141042
0.7710,350.000000,350.139930
0.7720,350.000000,350.137639
0.7730,350.000000,350.119183
0.7740,350.000000,350.121953
0.7750,350.000000,350.124244
0.7760,350.000000,350.120253
0.7770,350.000000,350.124557
0.7780,350.000000,350.127029
0.7790,350.000000,350.134711
0.7800,350.000000,350.144354
0.7810,350.000000,350.142829
0.7820,350.000000,350.140889
0.7830,350.000000,350.159178
0.7840,350.000000,350.162030
0.7850,350.000000,350.177613
0.7860,350.000000,350.165940
0.7870,350.000000,350.164752
0.7880,350.000000,350.151747
0.7890,350.000000,350.143674
0.7900,350.000000,350.134440
0.7910,350.000000,350.123712
0.7920,350.000000,350.133006
0.7930,350.000000,350.124430
0.7940,350.000000,350.130478
0.7950,350.000000,350.121974
0.7960,350.000000,350.120784
0.7970,350.000000,350.106490
0.7980,350.000000,350.143007
0.7990,350.000000,350.134834
0.8000,350.000000,350.125357
0.8010,350.000000,350.151339
0.8020,350.000000,350.149825
0.8030,350.000000,350.154938
0.8040,350.000000,350.167341
0.8050,350.000000,350.161772
0.8060,350.000000,350.173598
0.8070,350.000000,350.161140
0.8080,350.000000,350.160041
0.8090,350.000000,350.154771
0.8100,350.000000,350.144923
0.8110,350.000000,350.137293
0.8120,350.000000,350.130107
0.8130,350.000000,350.135699
0.8140,350.000000,350.127179
0.8150,350.000000,350.113812
0.8160,350.000000,350.111706
0.8170,350.000000,350.117740
0.8180,350.000000,350.132908
0.8190,350.000000,350.127425
0.8200,350.000000,350.138539
0.8210,350.000000,350.140517
0.8220,350.000000,350.165487
0.8230,350.000000,350.168730
0.8240,350.000000,350.173949
0.8250,350.000000,350.164378
0.8260,350.000000,350.153014
0.8270,350.000000,350.157078
0.8280,350.000000,350.147751
0.8290,350.000000,350.141058
0.8300,350.000000,350.153680
0.8310,350.000000,350.135274
0.8320,350.000000,350.132954
0.8330,350.000000,350.134235
0.8340,350.000000,350.113924
0.8350,350.000000,350.125900
0.8360,350.000000,350.110619
0.8370,350.000000,350.127748
0.8380,350.000000,350.139657
0.8390,350.000000,350.128770
0.8400,350.000000,350.152008
0.8410,350.000000,350.154673
0.8420,350.000000,350.156007
0.8430,350.000000,350.155425
0.8440,350.000000,350.170449
0.8450,350.000000,350.173717
0.8460,350.000000,350.166129
0.8470,350.000000,350.157487
0.8480,350.000000,350.166201
0.8490,350.000000,350.162963
0.8500,350.000000,350.153775
0.8510,350.000000,350.151517
0.8520,350.000000,350.126976
0.8530,350.000000,350.115632
0.8540,350.000000,350.126903
0.8550,350.000000,350.119294
0.8560,350.000000,350.131667
0.8570,350.000000,350.118952
0.8580,350.000000,350.124920
0.8590,350.000000,350.139938
0.8600,350.000000,350.148283
0.8610,350.000000,350.159770
0.8620,350.000000,350.160346
0.8630,350.000000,350.151177
0.8640,350.000000,350.197610
0.8650,350.000000,350.171508
0.8660,350.000000,350.193244
0.8670,350.000000,350.165790
0.8680,350.000000,350.153135
0.8690,350.000000,350.152399
0.8700,350.000000,350.156395
0.8710,350.000000,350.145197
0.8720,350.000000,350.136083
0.8730,350.000000,350.127890
0.8740,350.000000,350.126075
0.8750,350.000000,350.122742
0.8760,350.000000,350.134751
0.8770,350.000000,350.135980
0.8780,350.000000,350.126490
0.8790,350.000000,350.128967
0.8800,350.000000,350.138461
0.8810,350.000000,350.152902
0.8820,350.000000,350.164278
0.8830,350.000000,350.167445
0.8840,350.000000,350.176400
0.8850,350.000000,350.172482
0.8860,350.000000,350.184254
0.8870,350.000000,350.172214
0.8880,350.000000,350.163042
0.8890,350.000000,350.144186
0.8900,350.000000,350.151722
0.8910,350.000000,350.145560
0.8920,350.000000,350.129230
0.8930,350.000000,350.120442
0.8940,350.000000,350.135104
0.8950,350.000000,350.117485
0.8960,350.000000,350.127795
0.8970,350.000000,350.130180
0.8980,350.000000,350.138884
0.8990,350.000000,350.134373
0.9000,350.000000,350.148576
0.9010,350.000000,350.149278
0.9020,350.000000,350.164361
0.9030,350.000000,350.173170
0.9040,350.000000,350.179769
0.9050,350.000000,350.185798
0.9060,350.000000,350.170615
0.9070,350.000000,350.167124
0.9080,350.000000,350.174304
0.9090,350.000000,350.162091
0.9100,350.000000,350.160029
0.9110,350.000000,350.158393
0.9120,350.000000,350.129391
0.9130,350.000000,350.137362
0.9140,350.000000,350.122741
0.9150,350.000000,350.138924
0.9160,350.000000,350.118145
0.9170,350.000000,350.138453
0.9180,350.000000,350.132048
0.9190,350.000000,350.147658
0.9200,350.000000,350.160839
0.9210,350.000000,350.153013
0.9220,350.000000,350.153163
0.9230,350.000000,350.168202
0.9240,350.000000,350.170637
0.9250,350.000000,350.164689
0.9260,350.000000,350.157767
0.9270,350.000000,350.180220
0.9280,350.000000,350.177163
0.9290,350.000000,350.153777
0.9300,350.000000,350.148887
0.9310,350.000000,350.150325
0.9320,350.000000,350.143812
0.9330,350.000000,350.146198
0.9340,350.000000,350.133580
0.9350,350.000000,350.119280
0.9360,350.000000,350.135037
0.9370,350.000000,350.126585
0.9380,350.000000,350.137001
0.9390,350.000000,350.153166
0.9400,350.000000,350.144488
0.9410,350.000000,350.158611
0.9420,350.000000,350.156130
0.9430,350.000000,350.163384
0.9440,350.000000,350.170376
0.9450,350.000000,350.189015
0.9460,350.000000,350.175112
0.9470,350.000000,350.192636
0.9480,350.000000,350.173860
0.9490,350.000000,350.167433
0.9500,350.000000,350.143455
0.9510,350.000000,350.143608
0.9520,350.000000,350.129047
0.9530,350.000000,350.130448
0.9540,350.000000,350.125907
0.9550,350.000000,350.128098
0.9560,350.000000,350.136257
0.9570,350.000000,350.131010
0.9580,350.000000,350.145207
0.9590,350.000000,350.133466
0.9600,350.000000,350.156239
0.9610,350.000000,350.156626
0.9620,350.000000,350.168873
0.9630,350.000000,350.179100
0.9640,350.000000,350.164116
0.9650,350.000000,350.188617
0.9660,350.000000,350.174182
0.9670,350.000000,350.187259
0.9680,350.000000,350.167663
0.9690,350.000000,350.171012
0.9700,350.000000,350.153547
0.9710,350.000000,350.147831
0.9720,350.000000,350.139972
0.9730,350.000000,350.132016
0.9740,350.000000,350.128344
0.9750,350.000000,350.131071
0.9760,350.000000,350.134867
0.9770,350.000000,350.135796
0.9780,350.000000,350.143428
0.9790,350.000000,350.133858
0.9800,350.000000,350.160689
0.9810,350.000000,350.154970
0.9820,350.000000,350.154459
0.9830,350.000000,350.187764
0.9840,350.000000,350.187711
0.9850,350.000000,350.177556
0.9860,350.000000,350.185058
0.9870,350.000000,350.170478
0.9880,350.000000,350.164098
0.9890,350.000000,350.156443
0.9900,350.000000,350.148698
0.9910,350.000000,350.144361
0.9920,350.000000,350.134066
0.9930,350.000000,350.111713
0.9940,350.000000,350.129658
0.9950,350.000000,350.122231
0.9960,350.000000,350.133570
0.9970,350.000000,350.132715
0.9980,350.000000,350.145053
0.9990,350.000000,350.146802
1.0000,350.000000,350.144014
1.0010,350.000000,350.151464
1.0020,350.000000,350.158387
1.0030,350.000000,350.166745
1.0040,350.000000,350.171473
1.0050,350.000000,350.185654
1.0060,350.000000,350.178645
1.0070,350.000000,350.158887
1.0080,350.000000,350.161491
1.0090,350.000000,350.161541
1.0100,350.000000,350.146412
1.0110,350.000000,350.147707
1.0120,350.000000,350.133684
1.0130,350.000000,350.134041
1.0140,350.000000,350.127181
1.0150,350.000000,350.131483
1.0160,350.000000,350.143314
1.0170,350.000000,350.142367
1.0180,350.000000,350.131910
1.0190,350.000000,350.167366
1.0200,350.000000,350.164165
1.0210,350.000000,350.156673
1.0220,350.000000,350.161946
1.0230,350.000000,350.176935
1.0240,350.000000,350.183280
1.0250,350.000000,350.192981
1.0260,350.000000,350.181761
1.0270,350.000000,350.168998
1.0280,350.000000,350.164963
1.0290,350.000000,350.167368
1.0300,350.000000,350.144238
1.0310,350.000000,350.159525
1.0320,350.000000,350.136543
1.0330,350.000000,350.143289
1.0340,350.000000,350.141821
1.0350,350.000000,350.155512
1.0360,350.000000,350.129826
1.0370,350.000000,350.133475
1.0380,350.000000,350.138392
1.0390,350.000000,350.149129
1.0400,350.000000,350.150020
1.0410,350.000000,350.172308
1.0420,350.000000,350.177388
1.0430,350.000000,350.172595
1.0440,350.000000,350.172394
1.0450,350.000000,350.175783
1.0460,350.000000,350.174364
1.0470,350.000000,350.178676
1.0480,350.000000,350.170979
1.0490,350.000000,350.169336
1.0500,350.000000,350.167261
1.0510,350.000000,350.150352
1.0520,350.000000,350.146034
1.0530,350.000000,350.155646
1.0540,350.000000,350.137169
1.0550,350.000000,350.127527
1.0560,350.000000,350.132088
1.0570,350.000000,350.122732
1.0580,350.000000,350.145747
1.0590,350.000000,350.143693
1.0600,350.000000,350.148394
1.0610,350.000000,350.156030
1.0620,350.000000,350.178802
1.0630,350.000000,350.172907
1.0640,350.000000,350.184515
1.0650,350.000000,350.182674
1.0660,350.000000,350.180029
1.0670,350.000000,350.171964
1.0680,350.000000,350.173698
1.0690,350.000000,350.159646
1.0700,350.000000,350.156901
1.0710,350.000000,350.157094
1.0720,350.000000,350.152101
1.0730,350.000000,350.132777
1.0740,350.000000,350.135845
1.0750,350.000000,350.136377
1.0760,350.000000,350.134787
1.0770,350.000000,350.142415
1.0780,350.000000,350.147822
1.0790,350.000000,350.163026
1.0800,350.000000,350.173000
1.0810,350.000000,350.161856
1.0820,350.000000,350.183156
1.0830,350.000000,350.178704
1.0840,350.000000,350.177188
1.0850,350.000000,350.184646
1.0860,350.000000,350.176758
1.0870,350.000000,350.174879
1.0880,350.000000,350.161145
1.0890,350.000000,350.163876
1.0900,350.000000,350.163284
1.0910,350.000000,350.154176
1.0920,350.000000,350.144637
1.0930,350.000000,350.150317
1.0940,350.000000,350.150091
1.0950,350.000000,350.135835
1.0960,350.000000,350.145809
1.0970,350.000000,350.139234
1.0980,350.000000,350.142458
1.0990,350.000000,350.156135
1.1000,350.000000,350.155303
1.1010,350.000000,350.144410
1.1020,350.000000,350.167910
1.1030,350.000000,350.163247
1.1040,350.000000,350.175600
1.1050,350.000000,350.175518
1.1060,350.000000,350.174393
1.1070,350.000000,350.166886
1.1080,350.000000,350.160399
1.1090,350.000000,350.158124
1.1100,350.000000,350.152916
1.1110,350.000000,350.146083
1.1120,350.000000,350.143849
1.1130,350.000000,350.142119
1.1140,350.000000,350.124980
1.1150,350.000000,350.124885
1.1160,350.000000,350.146374
1.1170,350.000000,350.142522
1.1180,350.000000,350.135566
1.1190,350.000000,350.138432
1.1200,350.000000,350.151886
1.1210,350.000000,350.161262
1.1220,350.000000,350.175430
1.1230,350.000000,350.156866
1.1240,350.000000,350.170970
1.1250,350.000000,350.194258
1.1260,350.000000,350.178809
1.1270,350.000000,350.175765
1.1280,350.000000,350.165437
1.1290,350.000000,350.169566
1.1300,350.000000,350.141405
1.1310,350.000000,350.145014
1.1320,350.000000,350.125068
1.1330,350.000000,350.136244
1.1340,350.000000,350.129419
1.1350,350.000000,350.118767
1.1360,350.000000,350.141058
1.1370,350.000000,350.141896
1.1380,350.000000,350.149916
1.1390,350.000000,350.136308
1.1400,350.000000,350.147740
1.1410,350.000000,350.172795
1.1420,350.000000,350.176344
1.1430,350.000000,350.186389
1.1440,350.000000,350.176642
1.1450,350.000000,350.178852
1.1460,350.000000,350.183472
1.1470,350.000000,350.164315
1.1480,350.000000,350.171371
1.1490,350.000000,350.183384
1.1500,350.000000,350.152814
1.1510,350.000000,350.135422
1.1520,350.000000,350.144837
1.1530,350.000000,350.129018
1.1540,350.000000,350.131951
1.1550,350.000000,350.140321
1.1560,350.000000,350.137247
1.1570,350.000000,350.132271
1.1580,350.000000,350.148184
1.1590,350.000000,350.134810
1.1600,350.000000,350.157134
1.1610,350.000000,350.159888
1.1620,350.000000,350.150759
1.1630,350.000000,350.165246
1.1640,350.000000,350.178210
1.1650,350.000000,350.185460
1.1660,350.000000,350.178471
1.1670,350.000000,350.172505
1.1680,350.000000,350.176027
1.1690,350.000000,350.165036
1.1700,350.000000,350.163388
1.1710,350.000000,350.152573
1.1720,350.000000,350.135574
1.1730,350.000000,350.141311
1.1740,350.000000,350.140206
1.1750,350.000000,350.142528
1.1760,350.000000,350.128266
1.1770,350.000000,350.132970
1.1780,350.000000,350.148209
1.1790,350.000000,350.154571
1.1800,350.000000,350.151154
1.1810,350.000000,350.157255
1.1820,350.000000,350.165841
1.1830,350.000000,350.175230
1.1840,350.000000,350.170882
1.1850,350.000000,350.182497
1.1860,350.000000,350.164130
1.1870,350.000000,350.167862
1.1880,350.000000,350.170657
1.1890,350.000000,350.155119
1.1900,350.000000,350.151689
1.1910,350.000000,350.146580
1.1920,350.000000,350.157855
1.1930,350.000000,350.125106
1.1940,350.000000,350.134009
1.1950,350.000000,350.122728
1.1960,350.000000,350.123580
1.1970,350.000000,350.128464
1.1980,350.000000,350.139498
1.1990,350.000000,350.158888
1.2000,350.000000,350.164209
1.2010,350.000000,350.158537
1.2020,350.000000,350.166737
1.2030,350.000000,350.178884
1.2040,350.000000,350.177999
1.2050,350.000000,350.173594
1.2060,350.000000,350.182778
1.2070,350.000000,350.187020
1.2080,350.000000,350.177184
1.2090,350.000000,350.172853
1.2100,350.000000,350.153443
1.2110,350.000000,350.138454
1.2120,350.000000,350.124395
1.2130,350.000000,350.118485
1.2140,350.000000,350.129997
1.2150,350.000000,350.134476
1.2160,350.000000,350.138313
1.2170,350.000000,350.136894
1.2180,350.000000,350.134457
1.2190,350.000000,350.152128
1.2200,350.000000,350.144694
1.2210,350.000000,350.152837
1.2220,350.000000,350.173231
1.2230,350.000000,350.163742
1.2240,350.000000,350.170864
1.2250,350.000000,350.170309
1.2260,350.000000,350.178279
1.2270,350.000000,350.178191
1.2280,350.000000,350.173057
1.2290,350.000000,350.156781
1.2300,350.000000,350.152633
1.2310,350.000000,350.152408
1.2320,350.000000,350.135562
1.2330,350.000000,350.127160
1.2340,350.000000,350.125889
1.2350,350.000000,350.124951
1.2360,350.000000,350.131201
1.2370,350.000000,350.134116
1.2380,350.000000,350.138268
1.2390,350.000000,350.139863
1.2400,350.000000,350.146188
1.2410,350.000000,350.166222
1.2420,350.000000,350.170430
1.2430,350.000000,350.169481
1.2440,350.000000,350.175878
1.2450,350.000000,350.187169
1.2460,350.000000,350.175687
1.2470,350.000000,350.172767
1.2480,350.000000,350.179691
1.2490,350.000000,350.169308
1.2500,350.000000,350.148165
1.2510,350.000000,350.154402
1.2520,350.000000,350.137752
1.2530,350.000000,350.125360
1.2540,350.000000,350.140751
1.2550,350.000000,350.123429
1.2560,350.000000,350.126162
1.2570,350.000000,350.130562
1.2580,350.000000,350.155180
1.2590,350.000000,350.137920
1.2600,350.000000,350.148092
1.2610,350.000000,350.157551
1.2620,350.000000,350.171158
1.2630,350.000000,350.171654
1.2640,350.000000,350.170241
1.2650,350.000000,350.181704
1.2660,350.000000,350.186351
1.2670,350.000000,350.159064
1.2680,350.000000,350.161246
1.2690,350.000000,350.164062
1.2700,350.000000,350.142646
1.2710,350.000000,350.143811
1.2720,350.000000,350.148484
1.2730,350.000000,350.137947
1.2740,350.000000,350.133683
1.2750,350.000000,350.134276
1.2760,350.000000,350.132029
1.2770,350.000000,350.130097
1.2780,350.000000,350.145780
1.2790,350.000000,350.140901
1.2800,350.000000,350.150788
1.2810,350.000000,350.146205
1.2820,350.000000,350.162276
1.2830,350.000000,350.171992
1.2840,350.000000,350.174939
1.2850,350.000000,350.183248
1.2860,350.000000,350.171134
1.2870,350.000000,350.168002
1.2880,350.000000,350.161498
1.2890,350.000000,350.161021
1.2900,350.000000,350.163998
1.2910,350.000000,350.125682
1.2920,350.000000,350.133526
1.2930,350.000000,350.129263
1.2940,350.000000,350.111562
1.2950,350.000000,350.126400
1.2960,350.000000,350.125693
1.2970,350.000000,350.128369
1.2980,350.000000,350.128315
1.2990,350.000000,350.143084
1.3000,350.000000,350.141820
1.3010,350.000000,350.151782
1.3020,350.000000,350.163564
1.3030,350.000000,350.178593
1.3040,350.000000,350.177062
1.3050,350.000000,350.179815
1.3060,350.000000,350.189372
1.3070,350.000000,350.173744
1.3080,350.000000,350.156485
1.3090,350.000000,350.153617
1.3100,350.000000,350.143794
1.3110,350.000000,350.142098
1.3120,350.000000,350.133150
1.3130,350.000000,350.123539
1.3140,350.000000,350.135011
1.3150,350.002198,350.136555
1.3160,350.002678,350.131628
1.3170,350.003246,350.126101
1.3180,350.003916,350.141015
1.3190,350.004700,350.142570
1.3200,350.005612,350.166026
1.3210,350.006669,350.154594
1.3220,350.007885,350.177273
1.3230,350.009277,350.183751
1.3240,350.010859,350.190768
1.3250,350.012648,350.188076
1.3260,350.014658,350.184645
1.3270,350.016903,350.205212
1.3280,350.019395,350.176177
1.3290,350.022142,350.184940
1.3300,350.025153,350.174882
1.3310,350.028431,350.173283
1.3320,350.031976,350.170039
1.3330,350.035784,350.157120
1.3340,350.039845,350.155637
1.3350,350.044146,350.159227
1.3360,350.048667,350.171515
1.3370,350.053383,350.185137
1.3380,350.058264,350.187786
1.3390,350.063275,350.193437
1.3400,350.068374,350.224734
1.3410,350.073515,350.217576
1.3420,350.078649,350.245489
1.3430,350.083721,350.245963
1.3440,350.088676,350.270020
1.3450,350.093456,350.261970
1.3460,350.098002,350.255403
1.3470,350.102257,350.269957
1.3480,350.106165,350.262089
1.3490,350.109672,350.272055
1.3500,350.112730,350.263788
1.3510,350.115295,350.251205
1.3520,350.117330,350.243501
1.3530,350.118806,350.238847
1.3540,350.119700,350.240365
1.3550,350.120000,350.255026
1.3560,350.119700,350.243779
1.3570,350.118806,350.254959
1.3580,350.117330,350.239307
1.3590,350.115295,350.240379
1.3600,350.112730,350.252972
1.3610,350.109672,350.270089
1.3620,350.106165,350.265641
1.3630,350.102257,350.276409
1.3640,350.098002,350.278493
1.3650,350.093456,350.257289
1.3660,350.088676,350.265604
1.3670,350.083721,350.261605
1.3680,350.078649,350.248323
1.3690,350.073515,350.215415
1.3700,350.068374,350.200705
1.3710,350.063275,350.199375
1.3720,350.058264,350.187912
1.3730,350.053383,350.187685
1.3740,350.048667,350.165010
1.3750,350.044146,350.170316
1.3760,350.039845,350.155133
1.3770,350.035784,350.165840
1.3780,350.031976,350.160859
1.3790,350.028431,350.170463
1.3800,350.025153,350.168756
1.3810,350.022142,350.158346
1.3820,350.019395,350.183952
1.3830,350.016903,350.191992
1.3840,350.014658,350.177041
1.3850,350.012648,350.189301
1.3860,350.010859,350.174886
1.3870,350.009277,350.163934
1.3880,350.007885,350.163074
1.3890,350.006669,350.158519
1.3900,350.005612,350.140884
1.3910,350.004700,350.153846
1.3920,350.003916,350.123259
1.3930,350.003246,350.125125
1.3940,350.002678,350.118032
1.3950,350.000000,350.132318
1.3960,350.000000,350.110533
1.3970,350.000000,350.132532
1.3980,350.000000,350.132747
1.3990,350.000000,350.127808
1.4000,350.000000,350.142323
1.4010,350.000000,350.151020
1.4020,350.000000,350.163779
1.4030,350.000000,350.159178
1.4040,350.000000,350.172727
1.4050,350.000000,350.169168
1.4060,350.000000,350.171141
1.4070,350.000000,350.157000
1.4080,350.000000,350.156739
1.4090,350.000000,350.152786
1.4100,350.000000,350.145068
1.4110,350.000000,350.136609
1.4120,350.000000,350.146900
1.4130,350.000000,350.129373
1.4140,350.000000,350.127116
1.4150,350.000000,350.122023
1.4160,349.975051,350.100465
1.4170,349.951192,350.077263
1.4180,349.929466,350.073726
1.4190,349.910823,350.046675
1.4200,349.896077,350.046403
1.4210,349.885873,350.053572
1.4220,349.880657,350.043513
1.4230,349.902636,350.063225
1.4240,349.927509,350.087836
1.4250,349.970689,350.134021
1.4260,350.037302,350.206482
1.4270,350.132282,350.309117
1.4280,350.258843,350.420847
1.4290,350.416506,350.563821
1.4300,350.599222,350.739697
1.4310,350.769416,350.903642
1.4320,350.934561,351.052489
1.4330,351.073807,351.193412
1.4340,351.167125,351.282893
1.4350,351.200000,351.340752
1.4360,351.167125,351.294164
1.4370,351.073807,351.188177
1.4380,350.934561,351.050193
1.4390,350.769416,350.893766
1.4400,350.599222,350.752666
1.4410,350.441455,350.580135
1.4420,350.307651,350.476612
1.4430,350.202816,350.366047
1.4440,350.126479,350.289154
1.4450,350.074612,350.231192
1.4460,350.041636,350.216230
1.4470,350.000000,350.165363
1.4480,350.000000,350.162805
1.4490,350.000000,350.146653
1.4500,350.000000,350.146669
1.4510,350.000000,350.145691
1.4520,350.000000,350.131829
1.4530,350.000000,350.113230
1.4540,350.000000,350.122345
1.4550,349.820000,349.942967
1.4560,349.845073,349.976509
1.4570,349.866653,349.992681
1.4580,349.885227,350.020615
1.4590,349.901214,350.039328
1.4600,349.914974,350.044652
1.4610,349.926817,350.081304
1.4620,349.937011,350.092430
1.4630,349.945785,350.121446
1.4640,349.953337,350.104833
1.4650,349.959837,350.114881
1.4660,349.965431,350.134077
1.4670,349.970246,350.141689
1.4680,349.974391,350.127385
1.4690,349.977958,350.124220
1.4700,349.981028,350.122366
1.4710,349.983671,350.111978
1.4720,349.985945,350.119250
1.4730,349.987903,350.104052
1.4740,349.989588,350.111707
1.4750,350.000000,350.104670
1.4760,350.000000,350.130093
1.4770,350.000000,350.102705
1.4780,350.000000,350.116386
1.4790,350.000000,350.149524
1.4800,350.000000,350.139634
1.4810,350.000000,350.140878
1.4820,350.000000,350.142543
1.4830,350.000000,350.154494
1.4840,350.000000,350.163623
1.4850,350.000000,350.166286
1.4860,350.000000,350.163708
1.4870,350.000000,350.143344
1.4880,350.000000,350.153348
1.4890,350.000000,350.148170
1.4900,350.000000,350.140743
1.4910,350.000000,350.130685
1.4920,350.000000,350.113838
1.4930,350.000000,350.110900
1.4940,350.000000,350.124479
1.4950,350.000000,350.107305
1.4960,350.000000,350.108820
1.4970,350.000000,350.115546
1.4980,350.000000,350.113403
1.4990,350.000000,350.134807
1.5000,350.000000,350.126916
1.5010,350.000000,350.153062
1.5020,350.000000,350.140232
1.5030,350.000000,350.153973
1.5040,350.000000,350.162278
1.5050,350.000000,350.166937
1.5060,350.000000,350.157547
1.5070,350.000000,350.150225
1.5080,350.000000,350.161798
1.5090,350.000000,350.145116
1.5100,350.000000,350.134791
1.5110,350.000000,350.114099
1.5120,350.000000,350.123399
1.5130,350.000000,350.116425
1.5140,350.000000,350.102116
1.5150,350.006594,350.112041
1.5160,350.007283,350.120808
1.5170,350.008033,350.127868
1.5180,350.008851,350.122015
1.5190,350.009739,350.129577
1.5200,350.010703,350.146860
1.5210,350.011747,350.147573
1.5220,350.012877,350.160425
1.5230,350.014099,350.182670
1.5240,350.015417,350.172760
1.5250,350.016837,350.183784
1.5260,350.018366,350.165897
1.5270,350.020007,350.167857
1.5280,350.021769,350.164045
1.5290,350.023656,350.156628
1.5300,350.025674,350.145819
1.5310,350.027830,350.156155
1.5320,350.030129,350.153219
1.5330,350.032577,350.139602
1.5340,350.035180,350.140305
1.5350,350.037944,350.148383
1.5360,350.040873,350.151935
1.5370,350.043974,350.166447
1.5380,350.047251,350.175742
1.5390,350.050709,350.171378
1.5400,350.054352,350.187147
1.5410,350.058184,350.190833
1.5420,350.062208,350.221475
1.5430,350.066427,350.221020
1.5440,350.070844,350.234568
1.5450,350.075460,350.229406
1.5460,350.080277,350.244023
1.5470,350.085294,350.243322
1.5480,350.090512,350.247409
1.5490,350.095929,350.225056
1.5500,350.101543,350.234505
1.5510,350.107351,350.240981
1.5520,350.113350,350.223925
1.5530,350.119534,350.236362
1.5540,350.125899,350.239615
1.5550,350.132437,350.245917
1.5560,350.139140,350.250758
1.5570,350.146000,350.263198
1.5580,350.153006,350.273937
1.5590,350.160149,350.293688
1.5600,350.167416,350.293051
1.5610,350.174793,350.316210
1.5620,350.182268,350.337303
1.5630,350.189825,350.334050
1.5640,350.197449,350.345723
1.5650,350.205122,350.364194
1.5660,350.212827,350.377486
1.5670,350.220546,350.369565
1.5680,350.228259,350.373706
1.5690,350.235946,350.376749
1.5700,350.243588,350.370069
1.5710,350.251163,350.391571
1.5720,350.258651,350.367319
1.5730,350.266029,350.377404
1.5740,350.273275,350.381268
1.5750,350.280368,350.368730
1.5760,350.287286,350.387489
1.5770,350.294007,350.393438
1.5780,350.300509,350.421727
1.5790,350.306772,350.415270
1.5800,350.312773,350.449667
1.5810,350.318494,350.445728
1.5820,350.323914,350.474866
1.5830,350.329015,350.466310
1.5840,350.333779,350.488944
1.5850,350.338189,350.498514
1.5860,350.342229,350.498380
1.5870,350.345884,350.484170
1.5880,350.349142,350.500822
1.5890,350.351990,350.492204
1.5900,350.354419,350.463883
1.5910,350.356418,350.478111
1.5920,350.357981,350.494663
1.5930,350.359101,350.476632
1.5940,350.359775,350.460869
1.5950,350.360000,350.468159
1.5960,350.359775,350.461510
1.5970,350.359101,350.475399
1.5980,350.357981,350.464853
1.5990,350.356418,350.486058
1.6000,350.354419,350.489065
1.6010,350.351990,350.491726
1.6020,350.349142,350.506888
1.6030,350.345884,350.500315
1.6040,350.342229,350.500088
1.6050,350.338189,350.497956
1.6060,350.333779,350.488965
1.6070,350.329015,350.478689
1.6080,350.323914,350.459041
1.6090,350.318494,350.446934
1.6100,350.312773,350.442455
1.6110,350.306772,350.430348
1.6120,350.300509,350.412558
1.6130,350.294007,350.396644
1.6140,350.287286,350.389171
1.6150,350.280368,350.381637
1.6160,350.273275,350.378235
1.6170,350.266029,350.370313
1.6180,350.258651,350.379240
1.6190,350.251163,350.368124
1.6200,350.243588,350.363597
1.6210,350.235946,350.367764
1.6220,350.228259,350.358494
1.6230,350.220546,350.380900
1.6240,350.212827,350.365620
1.6250,350.205122,350.353636
1.6260,350.197449,350.356112
1.6270,350.189825,350.331999
1.6280,350.182268,350.320397
1.6290,350.174793,350.300757
1.6300,350.167416,350.283963
1.6310,350.160149,350.278382
1.6320,350.153006,350.271265
1.6330,350.146000,350.243302
1.6340,350.139140,350.238036
1.6350,350.132437,350.230334
1.6360,350.125899,350.232662
1.6370,350.119534,350.219973
1.6380,350.113350,350.228465
1.6390,350.107351,350.228745
1.6400,350.101543,350.219224
1.6410,350.095929,350.223867
1.6420,350.090512,350.228019
1.6430,350.085294,350.223860
1.6440,350.080277,350.218479
1.6450,350.075460,350.233744
1.6460,350.070844,350.201722
1.6470,350.066427,350.209909
1.6480,350.062208,350.209323
1.6490,350.058184,350.181135
1.6500,350.054352,350.176433
1.6510,350.050709,350.172273
1.6520,350.047251,350.130452
1.6530,350.043974,350.145690
1.6540,350.040873,350.126894
1.6550,350.037944,350.142963
1.6560,350.035180,350.127215
1.6570,350.032577,350.148524
1.6580,350.030129,350.129359
1.6590,350.027830,350.144874
1.6600,350.025674,350.139415
1.6610,350.023656,350.149813
1.6620,350.021769,350.156368
1.6630,350.020007,350.160044
1.6640,350.018366,350.174731
1.6650,350.016837,350.172444
1.6660,350.015417,350.152323
1.6670,350.014099,350.153820
1.6680,350.012877,350.137524
1.6690,350.011747,350.127769
1.6700,350.010703,350.124990
1.6710,350.009739,350.135298
1.6720,350.008851,350.100638
1.6730,350.008033,350.112509
1.6740,350.007283,350.107308
1.6750,350.000000,350.089108
1.6760,350.000000,350.101274
1.6770,350.000000,350.104533
1.6780,350.000000,350.104305
1.6790,350.000000,350.109978
1.6800,350.000000,350.116519
1.6810,350.000000,350.119033
1.6820,350.000000,350.133684
1.6830,350.000000,350.133514
1.6840,350.000000,350.142142
1.6850,350.000000,350.137029
1.6860,350.000000,350.135361
1.6870,350.000000,350.132737
1.6880,350.000000,350.141823
1.6890,350.000000,350.113846
1.6900,350.000000,350.131514
1.6910,350.000000,350.115946
1.6920,350.000000,350.090491
1.6930,350.000000,350.092943
1.6940,350.000000,350.081064
1.6950,350.000000,350.097929
1.6960,350.000000,350.104026
1.6970,350.000000,350.098939
1.6980,350.000000,350.112052
1.6990,350.000000,350.110343
1.7000,350.000000,350.123941
1.7010,350.000000,350.125809
1.7020,350.000000,350.130160
1.7030,350.000000,350.141429
1.7040,350.000000,350.137282
1.7050,350.000000,350.151246
1.7060,350.000000,350.135775
1.7070,350.000000,350.139310
1.7080,350.000000,350.123693
1.7090,350.000000,350.109953
1.7100,350.000000,350.117868
1.7110,350.000000,350.093039
1.7120,350.000000,350.117856
1.7130,350.000000,350.092402
1.7140,350.000000,350.091087
1.7150,350.000000,350.087936
1.7160,350.000000,350.092600
1.7170,350.000000,350.097486
1.7180,350.000000,350.093237
1.7190,350.000000,350.086096
1.7200,350.000000,350.105021
1.7210,350.000000,350.117243
1.7220,350.000000,350.129939
1.7230,350.000000,350.134357
1.7240,350.000000,350.142204
1.7250,350.000000,350.124091
1.7260,350.000000,350.128799
1.7270,350.000000,350.128886
1.7280,350.000000,350.139178
1.7290,350.000000,350.141940
1.7300,350.000000,350.101853
1.7310,350.000000,350.113838
1.7320,350.000000,350.098991
1.7330,350.000000,350.097316
1.7340,350.000000,350.078743
1.7350,350.000000,350.098885
1.7360,350.000000,350.071331
1.7370,350.000000,350.081871
1.7380,350.000000,350.095420
1.7390,350.000000,350.099404
1.7400,350.000000,350.111653
1.7410,350.000000,350.113265
1.7420,350.000000,350.122460
1.7430,350.000000,350.129027
1.7440,350.000000,350.132005
1.7450,350.000000,350.136035
1.7460,350.000000,350.140720
1.7470,350.000000,350.123993
1.7480,350.000000,350.135373
1.7490,350.000000,350.118174
1.7500,350.000000,350.120332
1.7510,350.000000,350.099967
1.7520,350.000000,350.088966
1.7530,350.000000,350.091107
1.7540,350.000000,350.107447
1.7550,350.000000,350.074719
1.7560,350.000000,350.092112
1.7570,350.000000,350.091401
1.7580,350.000000,350.098402
1.7590,350.000000,350.092093
1.7600,350.000000,350.112692
1.7610,350.000000,350.118693
1.7620,350.000000,350.111030
1.7630,350.000000,350.129137
1.7640,350.000000,350.129431
1.7650,350.000000,350.129597
1.7660,350.000000,350.130766
1.7670,350.000000,350.136302
1.7680,350.000000,350.125834
1.7690,350.000000,350.107010
1.7700,350.000000,350.111795
1.7710,350.000000,350.099926
1.7720,350.000000,350.088538
1.7730,350.000000,350.078118
1.7740,350.000000,350.090961
1.7750,350.000000,350.078644
1.7760,350.000000,350.091525
1.7770,350.000000,350.078934
1.7780,350.000000,350.108692
1.7790,350.000000,350.120372
1.7800,350.000000,350.110934
1.7810,350.000000,350.124261
1.7820,350.000000,350.116830
1.7830,350.000000,350.121226
1.7840,350.000000,350.138483
1.7850,350.000000,350.131193
1.7860,350.000000,350.117708
1.7870,350.000000,350.125771
1.7880,350.000000,350.109945
1.7890,350.000000,350.111425
1.7900,350.000000,350.113757
1.7910,350.000000,350.109503
1.7920,350.000000,350.093224
1.7930,350.000000,350.096285
1.7940,350.000000,350.078369
1.7950,350.000000,350.094356
1.7960,350.000000,350.076018
1.7970,350.000000,350.078613
1.7980,350.000000,350.086586
1.7990,350.000000,350.090860
1.8000,350.000000,350.108272
1.8010,350.000000,350.121443
1.8020,350.000000,350.118116
1.8030,350.000000,350.125668
1.8040,350.000000,350.115403
1.8050,350.000000,350.128283
1.8060,350.000000,350.140380
1.8070,350.000000,350.133983
1.8080,350.000000,350.108490
1.8090,350.000000,350.106928
1.8100,350.000000,350.130145
1.8110,350.000000,350.098697
1.8120,350.000000,350.100660
1.8130,350.000000,350.095853
1.8140,350.000000,350.070644
1.8150,350.000000,350.084062
1.8160,350.000000,350.080819
1.8170,350.000000,350.096539
1.8180,350.000000,350.103488
1.8190,350.000000,350.087702
1.8200,350.000000,350.129180
1.8210,350.000000,350.110292
1.8220,350.000000,350.120564
1.8230,350.000000,350.099472
1.8240,350.000000,350.132041
1.8250,350.000000,350.107791
1.8260,350.000000,350.122573
1.8270,350.000000,350.115767
1.8280,350.000000,350.118485
1.8290,350.000000,350.109375
1.8300,350.000000,350.105094
1.8310,350.000000,350.102825
1.8320,350.000000,350.078010
1.8330,350.000000,350.078972
1.8340,350.000000,350.070309
1.8350,350.000000,350.068407
1.8360,350.000000,350.092284
1.8370,350.000000,350.069954
1.8380,350.000000,350.078713
1.8390,350.000000,350.109409
1.8400,350.000000,350.098131
1.8410,350.000000,350.105921
1.8420,350.000000,350.116206
1.8430,350.000000,350.108546
1.8440,350.000000,350.114092
1.8450,350.000000,350.117585
1.8460,350.000000,350.129555
1.8470,350.000000,350.123055
1.8480,350.000000,350.107205
1.8490,350.000000,350.104363
1.8500,350.000000,350.104124
1.8510,350.000000,350.071268
1.8520,350.000000,350.085948
1.8530,350.000000,350.084158
1.8540,350.000000,350.067212
1.8550,350.000000,350.078460
1.8560,350.000000,350.074428
1.8570,350.000000,350.092076
1.8580,350.000000,350.078590
1.8590,350.000000,350.094066
1.8600,350.000000,350.084869
1.8610,350.000000,350.104521
1.8620,350.000000,350.117006
1.8630,350.000000,350.111463
1.8640,350.000000,350.127906
1.8650,350.000000,350.127359
1.8660,350.000000,350.119847
1.8670,350.000000,350.112991
1.8680,350.000000,350.085054
1.8690,350.000000,350.097720
1.8700,350.000000,350.104172
1.8710,350.000000,350.085636
1.8720,350.000000,350.084621
1.8730,350.000000,350.071858
1.8740,350.000000,350.060619
1.8750,350.000000,350.076716
1.8760,350.000000,350.061955
1.8770,350.000000,350.072966
1.8780,350.000000,350.083161
1.8790,350.000000,350.081384
1.8800,350.000000,350.106663
1.8810,350.000000,350.117168
1.8820,350.000000,350.101477
1.8830,350.000000,350.106974
1.8840,350.000000,350.112911
1.8850,350.000000,350.126691
1.8860,350.000000,350.120053
1.8870,350.000000,350.118637
1.8880,350.000000,350.117716
1.8890,350.000000,350.093131
1.8900,350.000000,350.096854
1.8910,350.000000,350.085700
1.8920,350.000000,350.081913
1.8930,350.000000,350.082229
1.8940,350.000000,350.068286
1.8950,350.000000,350.062624
1.8960,350.000000,350.060837
1.8970,350.000000,350.086561
1.8980,350.000000,350.077374
1.8990,350.000000,350.073331
1.9000,350.000000,350.102627
1.9010,350.000000,350.085173
1.9020,350.000000,350.093017
1.9030,350.000000,350.108071
1.9040,350.000000,350.109506
1.9050,350.000000,350.117424
1.9060,350.000000,350.098215
1.9070,350.000000,350.112699
1.9080,350.000000,350.114881
1.9090,350.000000,350.089981
1.9100,350.000000,350.087266
1.9110,350.000000,350.076337
1.9120,350.000000,350.078495
1.9130,350.000000,350.061891
1.9140,350.000000,350.057352
1.9150,350.000000,350.064448
1.9160,350.000000,350.069401
1.9170,350.000000,350.071190
1.9180,350.000000,350.071652
1.9190,350.000000,350.087078
1.9200,350.000000,350.090864
1.9210,350.000000,350.086957
1.9220,350.000000,350.081467
1.9230,350.000000,350.112229
1.9240,350.000000,350.109285
1.9250,350.000000,350.103505
1.9260,350.000000,350.124086
1.9270,350.000000,350.120466
1.9280,350.000000,350.112299
1.9290,350.000000,350.097102
1.9300,350.000000,350.062434
1.9310,350.000000,350.089607
1.9320,350.000000,350.066023
1.9330,350.000000,350.063477
1.9340,350.000000,350.071608
1.9350,350.000000,350.079367
1.9360,350.000000,350.076489
1.9370,350.000000,350.068823
1.9380,350.000000,350.078536
1.9390,350.000000,350.070342
1.9400,350.000000,350.073496
1.9410,350.000000,350.102406
1.9420,350.000000,350.102910
1.9430,350.000000,350.093925
1.9440,350.000000,350.108409
1.9450,350.000000,350.114776
1.9460,350.000000,350.115793
1.9470,350.000000,350.110028
1.9480,350.000000,350.096660
1.9490,350.000000,350.085961
1.9500,350.000000,350.086141
1.9510,350.000000,350.084078
1.9520,350.000000,350.078085
1.9530,350.000000,350.078049
1.9540,350.000000,350.062150
1.9550,350.000000,350.051686
1.9560,350.000000,350.070308
1.9570,350.000000,350.065562
1.9580,350.000000,350.059819
1.9590,350.000000,350.081633
1.9600,350.000000,350.095228
1.9610,350.000000,350.094286
1.9620,350.000000,350.109178
1.9630,350.000000,350.099092
1.9640,350.000000,350.100429
1.9650,350.000000,350.114134
1.9660,350.000000,350.103174
1.9670,350.000000,350.112101
1.9680,350.000000,350.098389
1.9690,350.000000,350.099955
1.9700,350.000000,350.087712
1.9710,350.000000,350.067918
1.9720,350.000000,350.052369
1.9730,350.000000,350.069120
1.9740,350.000000,350.063850
1.9750,350.000000,350.049884
1.9760,350.000000,350.065464
1.9770,350.000000,350.073482
1.9780,350.000000,350.061881
1.9790,350.000000,350.058635
1.9800,350.000000,350.089158
1.9810,350.000000,350.098862
1.9820,350.000000,350.089375
1.9830,350.000000,350.106621
1.9840,350.000000,350.106364
1.9850,350.000000,350.103883
1.9860,350.000000,350.108102
1.9870,350.000000,350.095905
1.9880,350.000000,350.085675
1.9890,350.000000,350.090915
1.9900,350.000000,350.082270
1.9910,350.000000,350.052207
1.9920,350.000000,350.056316
1.9930,350.000000,350.054951
1.9940,350.000000,350.060993
1.9950,350.000000,350.043311
1.9960,350.000000,350.053983
1.9970,350.000000,350.075324
1.9980,350.000000,350.065540
1.9990,350.000000,350.072602
2.0000,350.000000,350.078372
2.0010,350.000000,350.094006
2.0020,350.000000,350.093048
2.0030,350.000000,350.096138
2.0040,350.000000,350.102397
2.0050,350.000000,350.112834
2.0060,350.000000,350.104143
2.0070,350.000000,350.097851
2.0080,350.000000,350.101377
2.0090,350.000000,350.080962
2.0100,350.000000,350.051980
2.0110,350.000000,350.073636
2.0120,350.000000,350.066726
2.0130,350.000000,350.052824
2.0140,350.000000,350.052115
2.0150,350.000000,350.063029
2.0160,350.000000,350.057646
2.0170,350.000000,350.069095
2.0180,350.000000,350.064629
2.0190,350.000000,350.067816
2.0200,350.000000,350.081998
2.0210,350.000000,350.086572
2.0220,350.000000,350.093701
2.0230,350.000000,350.093533
2.0240,350.000000,350.094082
2.0250,350.000000,350.095432
2.0260,350.000000,350.102566
2.0270,350.000000,350.100068
2.0280,350.000000,350.068408
2.0290,350.000000,350.076758
2.0300,350.000000,350.062354
2.0310,350.000000,350.063550
2.0320,350.000000,350.055894
2.0330,350.000000,350.056471
2.0340,350.000000,350.053239
2.0350,350.000000,350.067494
2.0360,350.000000,350.054483
2.0370,350.000000,350.059892
2.0380,350.000000,350.048593
2.0390,350.000000,350.063855
2.0400,350.000000,350.065158
2.0410,350.000000,350.085904
2.0420,350.000000,350.088098
2.0430,350.000000,350.090133
2.0440,350.000000,350.103801
2.0450,350.000000,350.095045
2.0460,350.000000,350.106571
2.0470,350.000000,350.102931
2.0480,350.000000,350.081846
2.0490,350.000000,350.089024
2.0500,350.000000,350.073476
2.0510,350.000000,350.061881
2.0520,350.000000,350.061377
2.0530,350.000000,350.040087
2.0540,350.000000,350.044947
2.0550,350.000000,350.051293
2.0560,350.000000,350.046646
2.0570,350.000000,350.060911
2.0580,350.000000,350.054286
2.0590,350.000000,350.065008
2.0600,350.000000,350.070366
2.0610,350.000000,350.066397
2.0620,350.000000,350.088326
2.0630,350.000000,350.092909
2.0640,350.000000,350.078195
2.0650,350.000000,350.074949
2.0660,350.000000,350.089780
2.0670,350.000000,350.099720
2.0680,350.000000,350.106189
2.0690,350.000000,350.063060
2.0700,350.000000,350.083092
2.0710,350.000000,350.071839
2.0720,350.000000,350.051066
2.0730,350.000000,350.065365
2.0740,350.000000,350.050499
2.0750,350.000000,350.043648
2.0760,350.000000,350.032275
2.0770,350.000000,350.050621
2.0780,350.000000,350.055322
2.0790,350.000000,350.079468
2.0800,350.000000,350.061283
2.0810,350.000000,350.069055
2.0820,350.000000,350.078625
2.0830,350.000000,350.109146
2.0840,350.000000,350.081978
2.0850,350.000000,350.102699
2.0860,350.000000,350.078474
2.0870,350.000000,350.090857
2.0880,350.000000,350.082757
2.0890,350.000000,350.069560
2.0900,350.000000,350.073361
2.0910,350.000000,350.053676
2.0920,350.000000,350.040345
2.0930,350.000000,350.045341
2.0940,350.000000,350.036964
2.0950,350.000000,350.045079
2.0960,350.000000,350.041768
2.0970,350.000000,350.059855
2.0980,350.000000,350.049977
2.0990,350.000000,350.061304
2.1000,350.000000,350.057095
2.1010,350.000000,350.070274
2.1020,350.000000,350.072962
2.1030,350.000000,350.094920
2.1040,350.000000,350.082668
2.1050,350.000000,350.084578
2.1060,350.000000,350.090875
2.1070,350.000000,350.079244
2.1080,350.000000,350.090800
2.1090,350.000000,350.088372
2.1100,350.000000,350.057992
2.1110,350.000000,350.064399
2.1120,350.000000,350.044062
2.1130,350.000000,350.042538
2.1140,350.000000,350.047382
2.1150,350.000000,350.041683
2.1160,350.000000,350.042948
2.1170,350.000000,350.053691
2.1180,350.000000,350.058824
2.1190,350.000000,350.057071
2.1200,350.000000,350.058882
2.1210,350.000000,350.071260
2.1220,350.000000,350.069752
2.1230,350.000000,350.089299
2.1240,350.000000,350.084793
2.1250,350.000000,350.078508
2.1260,350.000000,350.096785
2.1270,350.000000,350.082416
2.1280,350.000000,350.071113
2.1290,350.000000,350.079430
2.1300,350.000000,350.072810
2.1310,350.000000,350.040117
2.1320,350.000000,350.057261
2.1330,350.000000,350.044234
2.1340,350.000000,350.047214
2.1350,350.000000,350.037605
2.1360,350.000000,350.042237
2.1370,350.000000,350.040058
2.1380,350.000000,350.055619
2.1390,350.000000,350.048881
2.1400,350.000000,350.069758
2.1410,350.000000,350.070274
2.1420,350.000000,350.081469
2.1430,350.000000,350.072532
2.1440,350.000000,350.087277
2.1450,350.000000,350.089216
2.1460,350.000000,350.098491
2.1470,350.000000,350.085710
2.1480,350.000000,350.069994
2.1490,350.000000,350.062853
2.1500,350.000000,350.066443
2.1510,350.000000,350.048499
2.1520,350.000000,350.041853
2.1530,350.000000,350.033708
2.1540,350.000000,350.038118
2.1550,350.000000,350.037514
2.1560,350.000000,350.034206
2.1570,350.000000,350.053666
2.1580,350.000000,350.049866
2.1590,350.000000,350.065935
2.1600,350.000000,350.060214
2.1610,350.000000,350.060602
2.1620,350.000000,350.065081
2.1630,350.000000,350.077244
2.1640,350.000000,350.087546
2.1650,350.000000,350.080199
2.1660,350.000000,350.088139
2.1670,350.000000,350.088983
2.1680,350.000000,350.065876
2.1690,350.000000,350.056725
2.1700,350.000000,350.065573
2.1710,350.000000,350.052605
2.1720,350.000000,350.046249
2.1730,350.000000,350.043798
2.1740,350.000000,350.022485
2.1750,350.000000,350.036931
2.1760,350.000000,350.035902
2.1770,350.000000,350.041445
2.1780,350.000000,350.035304
2.1790,350.000000,350.050161
2.1800,350.000000,350.052947
2.1810,350.000000,350.072465
2.1820,350.000000,350.069995
2.1830,350.000000,350.071082
2.1840,350.000000,350.071248
2.1850,350.000000,350.087216
2.1860,350.000000,350.086792
2.1870,350.000000,350.090804
2.1880,350.000000,350.067415
2.1890,350.000000,350.055081
2.1900,350.000000,350.054645
2.1910,350.000000,350.042538
2.1920,350.000000,350.036281
2.1930,350.000000,350.039684
2.1940,350.000000,350.041100
2.1950,350.000000,350.034379
2.1960,350.000000,350.033039
2.1970,350.000000,350.041991
2.1980,350.000000,350.038801
2.1990,350.000000,350.058795
2.2000,350.000000,350.078490
2.2010,350.000000,350.056762
2.2020,350.000000,350.078048
2.2030,350.000000,350.083255
2.2040,350.000000,350.081080
2.2050,350.000000,350.088214
2.2060,350.000000,350.079472
2.2070,350.000000,350.078301
2.2080,350.000000,350.068342
2.2090,350.000000,350.062004
2.2100,350.000000,350.058439
2.2110,350.000000,350.049191
2.2120,350.000000,350.030640
2.2130,350.000000,350.037665
2.2140,350.000000,350.028105
2.2150,350.000000,350.024333
2.2160,350.000000,350.037601
2.2170,350.000000,350.025666
2.2180,350.000000,350.036164
2.2190,350.000000,350.036382
2.2200,350.000000,350.048996
2.2210,350.000000,350.078659
2.2220,350.000000,350.059975
2.2230,350.000000,350.070079
2.2240,350.000000,350.085722
2.2250,350.000000,350.079156
2.2260,350.000000,350.073252
2.2270,350.000000,350.065295
2.2280,350.000000,350.070805
2.2290,350.000000,350.056022
2.2300,350.000000,350.068482
2.2310,350.000000,350.041295
2.2320,350.000000,350.050273
2.2330,350.000000,350.038352
2.2340,350.000000,350.034763
2.2350,350.000000,350.025258
2.2360,350.000000,350.023911
2.2370,350.000000,350.028805
2.2380,350.000000,350.044446
2.2390,350.000000,350.046854
2.2400,350.000000,350.035038
2.2410,350.000000,350.046963
2.2420,350.000000,350.062769
2.2430,350.000000,350.073338
2.2440,350.000000,350.070513
2.2450,350.000000,350.069388
2.2460,350.000000,350.064251
2.2470,350.000000,350.075909
2.2480,350.000000,350.063980
2.2490,350.000000,350.069827
2.2500,350.000000,350.038459
2.2510,350.000000,350.046859
2.2520,350.000000,350.038910
2.2530,350.000000,350.035886
2.2540,350.000000,350.032203
2.2550,350.000000,350.020249
2.2560,350.000000,350.023925
2.2570,350.000000,350.030001
2.2580,350.000000,350.025847
2.2590,350.000000,350.048703
2.2600,350.000000,350.027961
2.2610,350.000000,350.045766
2.2620,350.000000,350.048220
2.2630,350.000000,350.075644
2.2640,350.000000,350.071870
2.2650,350.000000,350.066948
2.2660,350.000000,350.070698
2.2670,350.000000,350.068524
2.2680,350.000000,350.051075
2.2690,350.000000,350.055360
2.2700,350.000000,350.057778
2.2710,350.000000,350.051663
2.2720,350.000000,350.039171
2.2730,350.000000,350.028993
2.2740,350.000000,350.030806
2.2750,350.000000,350.027773
2.2760,350.000000,350.014202
2.2770,350.000000,350.019186
2.2780,350.000000,350.036774
2.2790,350.000000,350.032932
2.2800,350.000000,350.037387
2.2810,350.000000,350.063213
2.2820,350.000000,350.059983
2.2830,350.000000,350.064164
2.2840,350.000000,350.058362
2.2850,350.000000,350.065464
2.2860,350.000000,350.065025
2.2870,350.000000,350.057015
2.2880,350.000000,350.049117
2.2890,350.000000,350.066027
2.2900,350.000000,350.055796
2.2910,350.000000,350.036158
2.2920,350.000000,350.019581
2.2930,350.000000,350.010983
2.2940,350.000000,350.017658
2.2950,350.000000,350.001962
2.2960,350.000000,350.017437
2.2970,350.000000,350.008191
2.2980,350.000000,350.028813
2.2990,350.000000,350.037723
2.3000,350.000000,350.041968
2.3010,350.000000,350.068148
2.3020,350.000000,350.055709
2.3030,350.000000,350.076407
2.3040,350.000000,350.068239
2.3050,350.000000,350.083040
2.3060,350.000000,350.051614
2.3070,350.000000,350.053486
2.3080,350.000000,350.054436
2.3090,350.000000,350.062762
2.3100,350.000000,350.040504
2.3110,350.000000,350.029455
2.3120,350.000000,350.032955
2.3130,350.000000,350.029936
2.3140,350.000000,350.013039
2.3150,350.000000,350.012388
2.3160,350.000000,350.032528
2.3170,350.000000,350.032265
2.3180,350.000000,350.039612
2.3190,350.000000,350.041593
2.3200,350.000000,350.034553
2.3210,350.000000,350.048431
2.3220,350.000000,350.046791
2.3230,350.000000,350.068296
2.3240,350.000000,350.059448
2.3250,350.000000,350.051174
2.3260,350.000000,350.064500
2.3270,350.000000,350.069081
2.3280,350.000000,350.043651
2.3290,350.000000,350.046875
2.3300,350.000000,350.035921
2.3310,350.000000,350.040768
2.3320,350.000000,350.009671
2.3330,350.000000,350.029716
2.3340,350.000000,350.011485
2.3350,350.000000,350.014570
2.3360,350.000000,350.023792
2.3370,350.000000,350.032062
2.3380,350.000000,350.025850
2.3390,350.000000,350.026229
2.3400,350.000000,350.035093
2.3410,350.000000,350.055990
2.3420,350.000000,350.046177
2.3430,350.000000,350.061091
2.3440,350.000000,350.061828
2.3450,350.000000,350.068917
2.3460,350.000000,350.061842
2.3470,350.000000,350.054589
2.3480,350.000000,350.048618
2.3490,350.000000,350.041678
2.3500,350.000000,350.027309
2.3510,350.000000,350.034877
2.3520,350.000000,350.025719
2.3530,350.000000,350.006901
2.3540,350.000000,350.011877
2.3550,350.000000,350.011645
2.3560,350.000000,350.010241
2.3570,350.000000,350.017276
2.3580,350.000000,350.022590
2.3590,350.000000,350.037193
2.3600,350.000000,350.037319
2.3610,350.000000,350.049423
2.3620,350.000000,350.040140
2.3630,350.000000,350.047986
2.3640,350.000000,350.048799
2.3650,350.000000,350.057700
2.3660,350.000000,350.060039
2.3670,350.000000,350.069429
2.3680,350.000000,350.044043
2.3690,350.000000,350.050687
2.3700,350.000000,350.029721
2.3710,350.000000,350.029057
2.3720,350.000000,350.020860
2.3730,350.000000,350.009282
2.3740,350.000000,350.006402
2.3750,350.000000,350.024676
2.3760,350.000000,350.008708
2.3770,350.000000,350.024276
2.3780,350.000000,350.026930
2.3790,350.000000,350.023206
2.3800,350.000000,350.035388
2.3810,350.000000,350.043702
2.3820,350.000000,350.053226
2.3830,350.000000,350.051304
2.3840,350.000000,350.045804
2.3850,350.000000,350.053334
2.3860,350.000000,350.066993
2.3870,350.000000,350.053913
2.3880,350.000000,350.045393
2.3890,350.000000,350.030174
2.3900,350.000000,350.044360
2.3910,350.000000,350.025294
2.3920,350.000000,350.028868
2.3930,350.000000,350.020223
2.3940,350.000000,350.017623
2.3950,350.000000,350.023268
2.3960,350.000000,350.012040
2.3970,350.000000,350.013320
2.3980,350.000000,350.032115
2.3990,350.000000,350.032873
2.4000,350.000000,350.027886
2.4010,350.000000,350.049194
2.4020,350.000000,350.059565
2.4030,350.000000,350.034262
2.4040,350.000000,350.046022
2.4050,350.000000,350.050579
2.4060,350.000000,350.061577
2.4070,350.000000,350.058602
2.4080,350.000000,350.051045
2.4090,350.000000,350.047118
2.4100,350.000000,350.023732
2.4110,350.000000,350.015441
2.4120,350.000000,350.028332
2.4130,350.000000,350.013736
2.4140,350.000000,350.019075
2.4150,350.000000,350.002551
2.4160,350.000000,350.000774
2.4170,350.000000,350.002374
2.4180,350.000000,350.024167
2.4190,350.000000,350.033415
2.4200,350.000000,350.036018
2.4210,350.000000,350.035143
2.4220,350.000000,350.050707
2.4230,350.000000,350.055707
2.4240,350.000000,350.037946
2.4250,350.000000,350.052429
2.4260,350.000000,350.056203
2.4270,350.000000,350.059333
2.4280,350.000000,350.044389
2.4290,350.000000,350.039482
2.4300,350.000000,350.030245
2.4310,350.000000,350.025400
2.4320,350.000000,350.005548
2.4330,350.000000,350.006256
2.4340,350.000000,349.989750
2.4350,350.000000,350.002803
2.4360,350.000000,350.011390
2.4370,350.000000,350.004409
2.4380,350.000000,350.013954
2.4390,350.000000,350.025694
2.4400,350.000000,350.051677
2.4410,350.000000,350.036572
2.4420,350.000000,350.049581
2.4430,350.000000,350.047554
2.4440,350.000000,350.055218
2.4450,350.000000,350.053230
2.4460,350.000000,350.048819
2.4470,350.000000,350.047079
2.4480,350.000000,350.053280
2.4490,350.000000,350.038838
2.4500,350.000000,350.019446
2.4510,350.000000,350.018125
2.4520,350.000000,350.007607
2.4530,350.000000,350.016765
2.4540,350.000000,349.999776
2.4550,350.000000,350.011485
2.4560,350.000000,350.013491
2.4570,350.000000,350.010156
2.4580,350.000000,350.018581
2.4590,350.000000,350.016819
2.4600,350.000000,350.034954
2.4610,350.000000,350.025574
2.4620,350.000000,350.038396
2.4630,350.000000,350.044861
2.4640,350.000000,350.058538
2.4650,350.000000,350.065378
2.4660,350.000000,350.046837
2.4670,350.000000,350.046209
2.4680,350.000000,350.032140
2.4690,350.000000,350.034149
2.4700,350.000000,350.036126
2.4710,350.000000,350.005447
2.4720,350.000000,350.013187
2.4730,350.000000,350.013390
2.4740,350.000000,350.004609
2.4750,350.000000,350.001380
2.4760,350.000000,350.010998
2.4770,350.000000,350.000842
2.4780,350.000000,350.006303
2.4790,350.000000,350.004376
2.4800,350.000000,350.029082
2.4810,350.000000,350.035583
2.4820,350.000000,350.035834
2.4830,350.000000,350.038499
2.4840,350.000000,350.048596
2.4850,350.000000,350.050837
2.4860,350.000000,350.039231
2.4870,350.000000,350.029753
2.4880,350.000000,350.026126
2.4890,350.000000,350.021529
2.4900,350.000000,350.016015
2.4910,350.000000,350.017490
2.4920,350.000000,350.012069
2.4930,350.000000,350.004656
2.4940,350.000000,350.005380
2.4950,350.000000,350.004461
2.4960,350.000000,350.004988
2.4970,350.000000,350.006390
2.4980,350.000000,350.002455
2.4990,350.000000,350.006836
2.5000,350.000000,350.020356
2.5010,350.000000,350.041273
2.5020,350.000000,350.057554
2.5030,350.000000,350.048488
2.5040,350.000000,350.050223
2.5050,350.000000,350.056990
2.5060,350.000000,350.059306
2.5070,350.000000,350.036335
2.5080,350.000000,350.061549
2.5090,350.000000,350.044258
2.5100,350.000000,350.013128
2.5110,350.000000,350.008577
2.5120,350.000000,350.032332
2.5130,350.000000,350.012703
2.5140,350.000000,349.996144
2.5150,350.000000,350.000302
2.5160,350.000000,350.006798
2.5170,350.000000,350.011207
2.5180,350.000000,350.020275
2.5190,350.000000,350.017880
2.5200,350.000000,350.025525
2.5210,350.000000,350.027710
2.5220,350.000000,350.029802
2.5230,350.000000,350.034666
2.5240,350.000000,350.044649
2.5250,350.000000,350.049650
2.5260,350.000000,350.034003
2.5270,350.000000,350.058531
2.5280,350.000000,350.031210
2.5290,350.000000,350.023150
2.5300,350.000000,350.022290
2.5310,350.000000,349.996064
2.5320,350.000000,350.011152
2.5330,350.000000,349.994951
2.5340,350.000000,349.984012
2.5350,350.000000,349.999286
2.5360,350.000000,350.000376
2.5370,350.000000,350.018134
2.5380,350.000000,350.009244
2.5390,350.000000,350.015800
2.5400,350.000000,350.022095
2.5410,350.000000,350.008480
2.5420,350.000000,350.036338
2.5430,350.000000,350.040571
2.5440,350.000000,350.043136
2.5450,350.000000,350.038724
2.5460,350.000000,350.048667
2.5470,350.000000,350.032851
2.5480,350.000000,350.040924
2.5490,350.000000,350.031623
2.5500,350.000000,350.032247
2.5510,350.000000,350.009826
2.5520,350.000000,350.017473
2.5530,350.000000,350.003091
2.5540,350.000000,349.997310
2.5550,350.000000,349.989839
2.5560,350.000000,350.000932
2.5570,350.000000,349.997295
2.5580,350.000000,350.006118
2.5590,350.000000,350.019179
2.5600,350.000000,350.020059
2.5610,350.000000,350.030187
2.5620,350.000000,350.046378
2.5630,350.000000,350.044010
2.5640,350.000000,350.037412
2.5650,350.000000,350.040705
2.5660,350.000000,350.043829
2.5670,350.000000,350.056196
2.5680,350.000000,350.023166
2.5690,350.000000,350.028604
2.5700,350.000000,350.030511
2.5710,350.000000,350.017026
2.5720,350.000000,350.004292
2.5730,350.000000,349.986212
2.5740,350.002198,350.010780
2.5750,350.002678,349.994139
2.5760,350.003246,349.991974
2.5770,350.003916,350.005615
2.5780,350.004700,350.021049
2.5790,350.005612,350.020405
2.5800,350.006669,350.022653
2.5810,350.007885,350.036118
2.5820,350.009277,350.043095
2.5830,350.010859,350.045226
2.5840,350.012648,350.054638
2.5850,350.014658,350.050623
2.5860,350.016903,350.050307
2.5870,350.019395,350.061654
2.5880,350.022142,350.051449
2.5890,350.025153,350.050652
2.5900,350.028431,350.040477
2.5910,350.031976,350.038177
2.5920,350.035784,350.035895
2.5930,350.039845,350.033749
2.5940,350.044146,350.035993
2.5950,350.048667,350.044131
2.5960,350.053383,350.059496
2.5970,350.058264,350.062687
2.5980,350.063275,350.064177
2.5990,350.068374,350.073517
2.6000,350.073515,350.076837
2.6010,350.078649,350.098168
2.6020,350.083721,350.106463
2.6030,350.088676,350.125885
2.6040,350.093456,350.146921
2.6050,350.098002,350.136067
2.6060,350.102257,350.130621
2.6070,350.106165,350.141109
2.6080,350.109672,350.137283
2.6090,350.112730,350.147201
2.6100,350.115295,350.117118
2.6110,350.117330,350.118817
2.6120,350.118806,350.127560
2.6130,350.119700,350.104436
2.6140,350.120000,350.118409
2.6150,350.119700,350.106958
2.6160,350.118806,350.120707
2.6170,350.117330,350.113975
2.6180,350.115295,350.116300
2.6190,350.112730,350.126430
2.6200,350.109672,350.126087
2.6210,350.106165,350.119892
2.6220,350.102257,350.128334
2.6230,350.098002,350.120476
2.6240,350.093456,350.125378
2.6250,350.088676,350.111515
2.6260,350.083721,350.141139
2.6270,350.078649,350.113679
2.6280,350.073515,350.107649
2.6290,350.068374,350.084809
2.6300,350.063275,350.083119
2.6310,350.058264,350.072615
2.6320,350.053383,350.062282
2.6330,350.048667,350.044043
2.6340,350.044146,350.044837
2.6350,350.039845,350.026316
2.6360,350.035784,350.031223
2.6370,350.031976,350.028156
2.6380,350.028431,350.020073
2.6390,350.025153,350.018188
2.6400,350.022142,350.034779
2.6410,350.019395,350.039417
2.6420,350.016903,350.043761
2.6430,350.014658,350.057323
2.6440,350.012648,350.061271
2.6450,350.010859,350.054846
2.6460,350.009277,350.051469
2.6470,350.007885,350.041272
2.6480,350.006669,350.036740
2.6490,350.005612,350.030957
2.6500,350.004700,350.020253
2.6510,350.003916,350.015614
2.6520,350.003246,350.003821
2.6530,350.002678,349.993556
2.6540,350.000000,349.993465
2.6550,350.000000,349.988252
2.6560,350.000000,350.002875
2.6570,350.000000,349.991189
2.6580,350.000000,350.022737
2.6590,350.000000,350.019610
2.6600,350.000000,350.004790
2.6610,350.000000,350.031223
2.6620,350.000000,350.026839
2.6630,350.000000,350.037620
2.6640,350.000000,350.049061
2.6650,350.000000,350.031365
2.6660,350.000000,350.032627
2.6670,350.000000,350.038896
2.6680,350.000000,350.024568
2.6690,350.000000,350.002957
2.6700,350.000000,350.020993
2.6710,350.000000,350.008766
2.6720,350.000000,349.998878
2.6730,350.000000,349.994700
2.6740,350.000000,350.008141
2.6750,349.975051,349.972156
2.6760,349.951192,349.934428
2.6770,349.929466,349.923928
2.6780,349.910823,349.919042
2.6790,349.896077,349.910764
2.6800,349.885873,349.886583
2.6810,349.880657,349.896738
2.6820,349.902636,349.920292
2.6830,349.927509,349.964609
2.6840,349.970689,349.998769
2.6850,350.037302,350.086197
2.6860,350.132282,350.177873
2.6870,350.258843,350.288634
2.6880,350.416506,350.432791
2.6890,350.599222,350.612569
2.6900,350.769416,350.785214
2.6910,350.934561,350.946098
2.6920,351.073807,351.071476
2.6930,351.167125,351.139195
2.6940,351.200000,351.194592
2.6950,351.167125,351.138887
2.6960,351.073807,351.045901
2.6970,350.934561,350.934951
2.6980,350.769416,350.757589
2.6990,350.599222,350.605526
2.7000,350.441455,350.453854
2.7010,350.307651,350.320236
2.7020,350.202816,350.230132
2.7030,350.126479,350.153001
2.7040,350.074612,350.109275
2.7050,350.041636,350.073952
2.7060,350.000000,350.030168
2.7070,350.000000,350.025443
2.7080,350.000000,350.018172
2.7090,350.000000,350.025438
2.7100,350.000000,350.007528
2.7110,350.000000,349.994632
2.7120,350.000000,349.993672
2.7130,350.000000,349.987361
2.7140,349.820000,349.804972
2.7150,349.845073,349.837680
2.7160,349.866653,349.849656
2.7170,349.885227,349.873575
2.7180,349.901214,349.903004
2.7190,349.914974,349.921811
2.7200,349.926817,349.931974
2.7210,349.937011,349.962760
2.7220,349.945785,349.977722
2.7230,349.953337,349.989973
2.7240,349.959837,349.995540
2.7250,349.965431,349.998451
2.7260,349.970246,349.994838
2.7270,349.974391,349.993050
2.7280,349.977958,350.001650
2.7290,349.981028,349.998774
2.7300,349.983671,349.991749
2.7310,349.985945,349.987761
2.7320,349.987903,349.994778
2.7330,349.989588,349.993216
2.7340,350.000000,349.978305
2.7350,350.000000,349.988239
2.7360,350.000000,349.987474
2.7370,350.000000,349.995820
2.7380,350.000000,350.009552
2.7390,350.000000,350.019831
2.7400,350.000000,350.015454
2.7410,350.000000,350.017388
2.7420,350.000000,350.020811
2.7430,350.000000,350.048869
2.7440,350.000000,350.026198
2.7450,350.000000,350.040048
2.7460,350.000000,350.030133
2.7470,350.000000,350.018083
2.7480,350.000000,350.037161
2.7490,350.000000,350.002763
2.7500,350.000000,349.992049
2.7510,350.000000,350.007379
2.7520,350.000000,349.992608
2.7530,350.000000,349.993141
2.7540,350.000000,349.986178
2.7550,350.000000,349.989821
2.7560,350.000000,349.983780
2.7570,350.000000,349.996729
2.7580,350.000000,350.002225
2.7590,350.000000,350.013814
2.7600,350.000000,350.018908
2.7610,350.000000,350.015316
2.7620,350.000000,350.028384
2.7630,350.000000,350.031420
2.7640,350.000000,350.034815
2.7650,350.000000,350.021988
2.7660,350.000000,350.037386
2.7670,350.000000,350.032779
2.7680,350.000000,350.037119
2.7690,350.000000,350.025148
2.7700,350.000000,350.009561
2.7710,350.000000,350.000092
2.7720,350.000000,349.986140
2.7730,350.000000,350.003363
2.7740,350.006594,349.983441
2.7750,350.007283,349.976485
2.7760,350.008033,350.000519
2.7770,350.008851,349.998201
2.7780,350.009739,350.005776
2.7790,350.010703,350.012767
2.7800,350.011747,350.011230
2.7810,350.012877,350.031150
2.7820,350.014099,350.033488
2.7830,350.015417,350.038955
2.7840,350.016837,350.058830
2.7850,350.018366,350.056437
2.7860,350.020007,350.032128
2.7870,350.021769,350.050578
2.7880,350.023656,350.053913
2.7890,350.025674,350.030705
2.7900,350.027830,350.028463
2.7910,350.030129,350.038217
2.7920,350.032577,350.022301
2.7930,350.035180,350.007361
2.7940,350.037944,350.032100
2.7950,350.040873,350.022824
2.7960,350.043974,350.031444
2.7970,350.047251,350.034707
2.7980,350.050709,350.052798
2.7990,350.054352,350.045333
2.8000,350.058184,350.070647
2.8010,350.062208,350.087286
2.8020,350.066427,350.076813
2.8030,350.070844,350.091380
2.8040,350.075460,350.118440
2.8050,350.080277,350.119886
2.8060,350.085294,350.108487
2.8070,350.090512,350.107096
2.8080,350.095929,350.119144
2.8090,350.101543,350.118405
2.8100,350.107351,350.113650
2.8110,350.113350,350.131335
2.8120,350.119534,350.117299
2.8130,350.125899,350.106420
2.8140,350.132437,350.124697
2.8150,350.139140,350.122193
2.8160,350.146000,350.124312
2.8170,350.153006,350.147313
2.8180,350.160149,350.164325
2.8190,350.167416,350.168168
2.8200,350.174793,350.173381
2.8210,350.182268,350.196960
2.8220,350.189825,350.202617
2.8230,350.197449,350.224976
2.8240,350.205122,350.240246
2.8250,350.212827,350.227242
2.8260,350.220546,350.255288
2.8270,350.228259,350.250842
2.8280,350.235946,350.251677
2.8290,350.243588,350.246474
2.8300,350.251163,350.248628
2.8310,350.258651,350.271370
2.8320,350.266029,350.264700
2.8330,350.273275,350.270166
2.8340,350.280368,350.256599
2.8350,350.287286,350.283556
2.8360,350.294007,350.276496
2.8370,350.300509,350.280595
2.8380,350.306772,350.289820
2.8390,350.312773,350.302716
2.8400,350.318494,350.318233
2.8410,350.323914,350.329858
2.8420,350.329015,350.356002
2.8430,350.333779,350.379617
2.8440,350.338189,350.364617
2.8450,350.342229,350.369953
2.8460,350.345884,350.359360
2.8470,350.349142,350.366637
2.8480,350.351990,350.358579
2.8490,350.354419,350.373758
2.8500,350.356418,350.377269
2.8510,350.357981,350.347267
2.8520,350.359101,350.348689
2.8530,350.359775,350.343658
2.8540,350.360000,350.347897
2.8550,350.359775,350.341841
2.8560,350.359101,350.358383
2.8570,350.357981,350.337732
2.8580,350.356418,350.354637
2.8590,350.354419,350.347339
2.8600,350.351990,350.344242
2.8610,350.349142,350.373007
2.8620,350.345884,350.379984
2.8630,350.342229,350.369899
2.8640,350.338189,350.360917
2.8650,350.333779,350.353584
2.8660,350.329015,350.361208
2.8670,350.323914,350.331169
2.8680,350.318494,350.344397
2.8690,350.312773,350.321639
2.8700,350.306772,350.308019
2.8710,350.300509,350.289241
2.8720,350.294007,350.273106
2.8730,350.287286,350.272078
2.8740,350.280368,350.263751
2.8750,350.273275,350.253156
2.8760,350.266029,350.256547
2.8770,350.258651,350.244270
2.8780,350.251163,350.247309
2.8790,350.243588,350.228921
2.8800,350.235946,350.236881
2.8810,350.228259,350.251984
2.8820,350.220546,350.246839
2.8830,350.212827,350.239297
2.8840,350.205122,350.229275
2.8850,350.197449,350.218287
2.8860,350.189825,350.212714
2.8870,350.182268,350.211057
2.8880,350.174793,350.177282
2.8890,350.167416,350.193409
2.8900,350.160149,350.174249
2.8910,350.153006,350.159479
2.8920,350.146000,350.140944
2.8930,350.139140,350.124694
2.8940,350.132437,350.116713
2.8950,350.125899,350.103023
2.8960,350.119534,350.117677
2.8970,350.113350,350.096825
2.8980,350.107351,350.093411
2.8990,350.101543,350.095949
2.9000,350.095929,350.094062
2.9010,350.090512,350.108294
2.9020,350.085294,350.099116
2.9030,350.080277,350.102527
2.9040,350.075460,350.112791
2.9050,350.070844,350.107200
2.9060,350.066427,350.084825
2.9070,350.062208,350.094808
2.9080,350.058184,350.064671
2.9090,350.054352,350.053446
2.9100,350.050709,350.051758
2.9110,350.047251,350.045815
2.9120,350.043974,350.031682
2.9130,350.040873,350.028555
2.9140,350.037944,350.015667
2.9150,350.035180,349.998242
2.9160,350.032577,350.011738
2.9170,350.030129,350.002035
2.9180,350.027830,350.017211
2.9190,350.025674,350.011673
2.9200,350.023656,350.031209
2.9210,350.021769,350.043413
2.9220,350.020007,350.023648
2.9230,350.018366,350.024790
2.9240,350.016837,350.040578
2.9250,350.015417,350.051747
2.9260,350.014099,350.041444
2.9270,350.012877,350.032129
2.9280,350.011747,350.020472
2.9290,350.010703,350.027108
2.9300,350.009739,350.025216
2.9310,350.008851,349.989635
2.9320,350.008033,349.999409
2.9330,350.007283,350.011335
2.9340,350.000000,349.975417
2.9350,350.000000,349.977538
2.9360,350.000000,349.979940
2.9370,350.000000,349.980335
2.9380,350.000000,349.997667
2.9390,350.000000,350.009971
2.9400,350.000000,349.989317
2.9410,350.000000,350.002872
2.9420,350.000000,350.026986
2.9430,350.000000,350.027106
2.9440,350.000000,350.029185
2.9450,350.000000,350.032417
2.9460,350.000000,350.026417
2.9470,350.000000,350.026067
2.9480,350.000000,350.014284
2.9490,350.000000,350.008352
2.9500,350.000000,350.001976
2.9510,350.000000,349.992042
2.9520,350.000000,349.992340
2.9530,350.000000,349.985640
2.9540,350.000000,349.964901
2.9550,350.000000,349.977009
2.9560,350.000000,349.979955
2.9570,350.000000,349.995419
2.9580,350.000000,349.986173
2.9590,350.000000,349.995909
2.9600,350.000000,350.001920
2.9610,350.000000,350.020508
2.9620,350.000000,350.007042
2.9630,350.000000,350.015611
2.9640,350.000000,350.018465
2.9650,350.000000,350.026547
2.9660,350.000000,350.013291
2.9670,350.000000,350.033534
2.9680,350.000000,350.019809
2.9690,350.000000,350.014458
2.9700,350.000000,350.019158
2.9710,350.000000,349.992152
2.9720,350.000000,349.995043
2.9730,350.000000,349.987525
2.9740,350.000000,349.991754
2.9750,350.000000,349.983776
2.9760,350.000000,349.975329
2.9770,350.000000,349.986185
2.9780,350.000000,349.982910
2.9790,350.000000,349.991020
2.9800,350.000000,350.002046
2.9810,350.000000,350.008067
2.9820,350.000000,350.009075
2.9830,350.000000,350.003362
2.9840,350.000000,350.027281
2.9850,350.000000,350.029007
2.9860,350.000000,350.027784
2.9870,350.000000,350.036696
2.9880,350.000000,350.003832
2.9890,350.000000,350.021839
2.9900,350.000000,350.021916
2.9910,350.000000,350.008657
2.9920,350.000000,349.985045
2.9930,350.000000,349.986137
2.9940,350.000000,349.972918
2.9950,350.000000,349.972488
2.9960,350.000000,349.992841
2.9970,350.000000,349.988040
2.9980,350.000000,349.993820
2.9990,350.000000,349.985431
3.0000,350.000000,349.990029
3.0010,350.000000,350.017653
3.0020,350.000000,350.019263
3.0030,350.000000,350.018796
3.0040,350.000000,350.038468
3.0050,350.000000,350.030482
3.0060,350.000000,350.017745
3.0070,350.000000,350.005617
3.0080,350.000000,350.020582
3.0090,350.000000,350.005335
3.0100,350.000000,350.000548
3.0110,350.000000,349.992454
3.0120,350.000000,349.998969
3.0130,350.000000,349.988940
3.0140,350.000000,349.978004
3.0150,350.000000,349.976599
3.0160,350.000000,349.981049
3.0170,350.000000,349.992683
3.0180,350.000000,349.988097
3.0190,350.000000,349.989513
3.0200,350.000000,349.991873
3.0210,350.000000,350.008229
3.0220,350.000000,350.006004
3.0230,350.000000,350.023617
3.0240,350.000000,350.027905
3.0250,350.000000,350.034968
3.0260,350.000000,350.022578
3.0270,350.000000,350.029089
3.0280,350.000000,350.028400
3.0290,350.000000,350.009393
3.0300,350.000000,350.019255
3.0310,350.000000,350.005439
3.0320,350.000000,349.983405
3.0330,350.000000,350.005473
3.0340,350.000000,349.977954
3.0350,350.000000,349.988504
3.0360,350.000000,349.983497
3.0370,350.000000,349.984293
3.0380,350.000000,349.997633
3.0390,350.000000,349.995047
3.0400,350.000000,350.000632
3.0410,350.000000,350.008278
3.0420,350.000000,350.006175
3.0430,350.000000,350.029156
3.0440,350.000000,350.018742
3.0450,350.000000,350.026863
3.0460,350.000000,350.024156
3.0470,350.000000,350.025434
3.0480,350.000000,350.015148
3.0490,350.000000,350.006404
3.0500,350.000000,350.004440
3.0510,350.000000,349.996326
3.0520,350.000000,349.978498
3.0530,350.000000,349.980791
3.0540,350.000000,349.988410
3.0550,350.000000,349.996723
3.0560,350.000000,349.964568
3.0570,350.000000,349.988247
3.0580,350.000000,349.987770
3.0590,350.000000,349.988868
3.0600,350.000000,349.997585
3.0610,350.000000,350.000896
3.0620,350.000000,350.004196
3.0630,350.000000,350.023475
3.0640,350.000000,350.038057
3.0650,350.000000,350.027776
3.0660,350.000000,350.025142
3.0670,350.000000,350.015362
3.0680,350.000000,350.007588
3.0690,350.000000,350.008504
3.0700,350.000000,349.992669
3.0710,350.000000,350.002461
3.0720,350.000000,349.982156
3.0730,350.000000,349.974709
3.0740,350.000000,349.996043
3.0750,350.000000,349.987244
3.0760,350.000000,349.968458
3.0770,350.000000,349.974360
3.0780,350.000000,349.985158
3.0790,350.000000,349.992111
3.0800,350.000000,349.997135
3.0810,350.000000,350.018906
3.0820,350.000000,350.016577
3.0830,350.000000,350.019898
3.0840,350.000000,350.018729
3.0850,350.000000,350.016346
3.0860,350.000000,350.018579
3.0870,350.000000,350.013151
3.0880,350.000000,350.004764
3.0890,350.000000,350.016764
3.0900,350.000000,350.008155
3.0910,350.000000,349.990292
3.0920,350.000000,349.997132
3.0930,350.000000,349.985994
3.0940,350.000000,349.969211
3.0950,350.000000,349.965008
3.0960,350.000000,349.980286
3.0970,350.000000,349.985047
3.0980,350.000000,349.976198
3.0990,350.000000,349.989017
3.1000,350.000000,350.007456
3.1010,350.000000,350.020606
3.1020,350.000000,350.015397
3.1030,350.000000,350.020473
3.1040,350.000000,350.019816
3.1050,350.000000,350.036489
3.1060,350.000000,350.027856
3.1070,350.000000,350.013264
3.1080,350.000000,350.020932
3.1090,350.000000,350.002370
3.1100,350.000000,349.992939
3.1110,350.000000,349.989552
3.1120,350.000000,349.979548
3.1130,350.000000,349.973877
3.1140,350.000000,349.966506
3.1150,350.000000,349.970928
3.1160,350.000000,349.973421
3.1170,350.000000,349.970276
3.1180,350.000000,349.990711
3.1190,350.000000,349.978942
3.1200,350.000000,349.997434
3.1210,350.000000,350.013182
3.1220,350.000000,350.023634
3.1230,350.000000,350.015281
3.1240,350.000000,350.031388
3.1250,350.000000,350.021510
3.1260,350.000000,350.041309
3.1270,350.000000,350.008175
3.1280,350.000000,350.006482
3.1290,350.000000,350.009129
3.1300,350.000000,349.990328
3.1310,350.000000,349.987332
3.1320,350.000000,349.989923
3.1330,350.000000,349.982513
3.1340,350.000000,349.977288
3.1350,350.000000,349.976191
3.1360,350.000000,349.957867
3.1370,350.000000,349.982149
3.1380,350.000000,349.981176
3.1390,350.000000,349.989992
3.1400,350.000000,349.987639
3.1410,350.000000,350.013156
3.1420,350.000000,350.018870
3.1430,350.000000,350.010441
3.1440,350.000000,350.024599
3.1450,350.000000,350.037504
3.1460,350.000000,350.024274
3.1470,350.000000,350.003625
3.1480,350.000000,350.009860
3.1490,350.000000,350.008744
3.1500,350.000000,350.017236
3.1510,350.000000,349.983213
3.1520,350.000000,349.985011
3.1530,350.000000,349.972337
3.1540,350.000000,349.984496
3.1550,350.000000,349.973352
3.1560,350.000000,349.955600
3.1570,350.000000,349.977711
3.1580,350.000000,349.985265
3.1590,350.000000,349.995952
3.1600,350.000000,350.001713
3.1610,350.000000,350.012930
3.1620,350.000000,350.013370
3.1630,350.000000,350.020340
3.1640,350.000000,350.023165
3.1650,350.000000,350.020917
3.1660,350.000000,350.027605
3.1670,350.000000,350.026420
3.1680,350.000000,350.013983
3.1690,350.000000,350.003705
3.1700,350.000000,349.991557
3.1710,350.000000,349.995637
3.1720,350.000000,349.978075
3.1730,350.000000,349.982065
3.1740,350.000000,349.978426
3.1750,350.000000,349.984735
3.1760,350.000000,349.988467
3.1770,350.000000,349.956470
3.1780,350.000000,349.984468
3.1790,350.000000,349.975960
3.1800,350.000000,350.009473
3.1810,350.000000,350.007408
3.1820,350.000000,350.023493
3.1830,350.000000,350.021651
3.1840,350.000000,350.012189
3.1850,350.000000,350.016422
3.1860,350.000000,350.021911
3.1870,350.000000,350.024129
3.1880,350.000000,350.014715
3.1890,350.000000,350.008987
3.1900,350.000000,349.997288
3.1910,350.000000,350.001768
3.1920,350.000000,349.987203
3.1930,350.000000,349.981109
3.1940,350.000000,349.979673
3.1950,350.000000,349.972812
3.1960,350.000000,349.974503
3.1970,350.000000,349.984561
3.1980,350.000000,349.992228
3.1990,350.000000,349.999751
3.2000,350.000000,349.998557
3.2010,350.000000,350.008519
3.2020,350.000000,350.009368
3.2030,350.000000,350.025820
3.2040,350.000000,350.015375
3.2050,350.000000,350.025883
3.2060,350.000000,350.029961
3.2070,350.000000,350.020523
3.2080,350.000000,350.016605
3.2090,350.000000,350.005330
3.2100,350.000000,349.985263
3.2110,350.000000,349.987286
3.2120,350.000000,349.986337
3.2130,350.000000,349.975158
3.2140,350.000000,349.981141
3.2150,350.000000,349.964371
3.2160,350.000000,349.961756
3.2170,350.000000,349.986223
3.2180,350.000000,349.983477
3.2190,350.000000,349.995429
3.2200,350.000000,349.995905
3.2210,350.000000,350.012005
3.2220,350.000000,350.025035
3.2230,350.000000,350.030911
3.2240,350.000000,350.017707
3.2250,350.000000,350.020688
3.2260,350.000000,350.024248
3.2270,350.000000,350.034444
3.2280,350.000000,350.004943
3.2290,350.000000,349.998307
3.2300,350.000000,350.007007
3.2310,350.000000,349.987311
3.2320,350.000000,349.991219
3.2330,350.000000,349.975954
3.2340,350.000000,349.980042
3.2350,350.000000,349.971968
3.2360,350.000000,349.969183
3.2370,350.000000,349.981799
3.2380,350.000000,349.976236
3.2390,350.000000,349.996276
3.2400,350.000000,349.998167
3.2410,350.000000,349.996568
3.2420,350.000000,350.016545
3.2430,350.000000,350.021684
3.2440,350.000000,350.004044
3.2450,350.000000,350.023627
3.2460,350.000000,350.022938
3.2470,350.000000,350.020190
3.2480,350.000000,349.999588
3.2490,350.000000,350.010276
3.2500,350.000000,350.004133
3.2510,350.000000,349.985108
3.2520,350.000000,349.974727
3.2530,350.000000,349.972774
3.2540,350.000000,349.978230
3.2550,350.000000,349.966122
3.2560,350.000000,349.966369
3.2570,350.000000,349.997402
3.2580,350.000000,349.985872
3.2590,350.000000,349.990115
3.2600,350.000000,349.994656
3.2610,350.000000,350.004051
3.2620,350.000000,350.028540
3.2630,350.000000,350.025964
3.2640,350.000000,350.041936
3.2650,350.000000,350.027152
3.2660,350.000000,350.015191
3.2670,350.000000,350.021600
3.2680,350.000000,350.018510
3.2690,350.000000,350.012341
3.2700,350.000000,349.996475
3.2710,350.000000,350.007027
3.2720,350.000000,349.975748
3.2730,350.000000,349.983310
3.2740,350.000000,349.974846
3.2750,350.000000,349.969794
3.2760,350.000000,349.979161
3.2770,350.000000,349.990645
3.2780,350.000000,349.989133
3.2790,350.000000,349.994776
3.2800,350.000000,349.983851
3.2810,350.000000,350.014793
3.2820,350.000000,350.010865
3.2830,350.000000,350.023696
3.2840,350.000000,350.030193
3.2850,350.000000,350.025549
3.2860,350.000000,350.006821
3.2870,350.000000,350.030754
3.2880,350.000000,350.028553
3.2890,350.000000,350.013926
3.2900,350.000000,349.994192
3.2910,350.000000,350.002426
3.2920,350.000000,349.983640
3.2930,350.000000,349.980051
3.2940,350.000000,349.986758
3.2950,350.000000,349.981183
3.2960,350.000000,349.958354
3.2970,350.000000,349.982249
3.2980,350.000000,349.995378
3.2990,350.000000,349.981677
3.3000,350.000000,350.007822
3.3010,350.000000,349.994060
3.3020,350.000000,350.012390
3.3030,350.000000,350.023749
3.3040,350.000000,350.020802
3.3050,350.000000,350.033422
3.3060,350.000000,350.011509
3.3070,350.000000,350.025939
3.3080,350.000000,350.014531
3.3090,350.000000,350.000597
3.3100,350.000000,350.003511
3.3110,350.000000,349.992021
3.3120,350.000000,349.997730
3.3130,350.000000,349.985251
3.3140,350.000000,349.980476
3.3150,350.000000,349.970617
3.3160,350.000000,349.978347
3.3170,350.000000,349.975983
3.3180,350.000000,349.985395
3.3190,350.000000,350.002547
3.3200,350.000000,349.997714
3.3210,350.000000,349.995847
3.3220,350.000000,350.018063
3.3230,350.000000,350.025711
3.3240,350.000000,350.035537
3.3250,350.000000,350.030915
3.3260,350.000000,350.020652
3.3270,350.000000,350.021503
3.3280,350.000000,350.017221
3.3290,350.000000,350.010890
3.3300,350.000000,349.980207
3.3310,350.000000,349.987996
3.3320,350.000000,349.989710
3.3330,350.000000,349.989379
3.3340,350.000000,349.972100
3.3350,350.000000,349.972680
3.3360,350.000000,349.975267
3.3370,350.000000,349.979504
3.3380,350.000000,349.992729
3.3390,350.000000,349.986676
3.3400,350.000000,350.006918
3.3410,350.000000,350.018767
3.3420,350.000000,350.010957
3.3430,350.000000,350.015977
3.3440,350.000000,350.024086
3.3450,350.000000,350.019308
3.3460,350.000000,350.022122
3.3470,350.000000,350.007659
3.3480,350.000000,350.020952
3.3490,350.000000,350.020720
3.3500,350.000000,349.994614
3.3510,350.000000,349.979414
3.3520,350.000000,349.993260
3.3530,350.000000,349.977235
3.3540,350.000000,349.971831
3.3550,350.000000,349.975024
3.3560,350.000000,349.967407
3.3570,350.000000,349.984439
3.3580,350.000000,349.975776
3.3590,350.000000,349.983108
3.3600,350.000000,349.990417
3.3610,350.000000,350.008727
3.3620,350.000000,349.999596
3.3630,350.000000,350.036121
3.3640,350.000000,350.019820
3.3650,350.000000,350.007069
3.3660,350.000000,350.014338
3.3670,350.000000,350.024205
3.3680,350.000000,350.024892
3.3690,350.000000,350.008720
3.3700,350.000000,350.000683
3.3710,350.000000,349.980340
3.3720,350.000000,349.997801
3.3730,350.000000,349.985028
3.3740,350.000000,349.979740
3.3750,350.000000,349.976132
3.3760,350.000000,349.981419
3.3770,350.000000,349.974179
3.3780,350.000000,349.993403
3.3790,350.000000,349.999006
3.3800,350.000000,349.999210
3.3810,350.000000,350.005234
3.3820,350.000000,349.996834
3.3830,350.000000,350.005553
3.3840,350.000000,350.027185
3.3850,350.000000,350.031231
3.3860,350.000000,350.031378
3.3870,350.000000,350.008631
3.3880,350.000000,350.032446
3.3890,350.000000,350.015410
3.3900,350.000000,349.995403
3.3910,350.000000,349.993881
3.3920,350.000000,349.972304
3.3930,350.000000,349.975638
3.3940,350.000000,349.981470
3.3950,350.000000,349.976490
3.3960,350.000000,349.991107
3.3970,350.000000,349.968735
3.3980,350.000000,349.984943
3.3990,350.000000,349.983476
3.4000,350.000000,350.012266
3.4010,350.000000,350.009524
3.4020,350.000000,350.014158
3.4030,350.000000,350.018334
3.4040,350.000000,350.015791
3.4050,350.000000,350.033569
3.4060,350.000000,350.024171
3.4070,350.000000,350.021354
3.4080,350.000000,350.018745
3.4090,350.000000,350.000500
3.4100,350.000000,350.015940
3.4110,350.000000,350.005116
3.4120,350.000000,349.985581
3.4130,350.000000,349.978150
3.4140,350.000000,349.982265
3.4150,350.000000,349.984934
3.4160,350.000000,349.991149
3.4170,350.000000,349.985713
3.4180,350.000000,349.986955
3.4190,350.000000,349.993649
3.4200,350.000000,349.984922
3.4210,350.000000,350.003940
3.4220,350.000000,350.016962
3.4230,350.000000,350.001318
3.4240,350.000000,350.024227
3.4250,350.000000,350.017465
3.4260,350.000000,350.035402
3.4270,350.000000,350.017098
3.4280,350.000000,350.011955
3.4290,350.000000,350.006273
3.4300,350.000000,349.999918
3.4310,350.000000,349.998880
3.4320,350.000000,349.983091
3.4330,350.000000,349.980721
3.4340,350.000000,349.983514
3.4350,350.000000,349.976016
3.4360,350.000000,349.982364
3.4370,350.000000,349.976963
3.4380,350.000000,349.988644
3.4390,350.000000,350.002996
3.4400,350.000000,350.004759
3.4410,350.000000,349.992386
3.4420,350.000000,350.018485
3.4430,350.000000,350.010118
3.4440,350.000000,350.015358
3.4450,350.000000,350.027865
3.4460,350.000000,350.014997
3.4470,350.000000,350.010464
3.4480,350.000000,350.014003
3.4490,350.000000,350.002432
3.4500,350.000000,349.986882
3.4510,350.000000,349.996945
3.4520,350.000000,349.993693
3.4530,350.000000,349.987735
3.4540,350.000000,349.969900
3.4550,350.000000,349.979197
3.4560,350.000000,349.973130
3.4570,350.000000,349.970349
3.4580,350.000000,349.979818
3.4590,350.000000,349.969930
3.4600,350.000000,349.991440
3.4610,350.000000,349.995579
3.4620,350.000000,350.015624
3.4630,350.000000,350.021639
3.4640,350.000000,350.009196
3.4650,350.000000,350.030510
3.4660,350.000000,350.017846
3.4670,350.000000,350.010742
3.4680,350.000000,349.999662
3.4690,350.000000,350.000885
3.4700,350.000000,349.998759
3.4710,350.000000,350.000419
3.4720,350.000000,349.984917
3.4730,350.000000,349.977928
3.4740,350.000000,349.981679
3.4750,350.000000,349.976979
3.4760,350.000000,349.964989
3.4770,350.000000,349.976942
3.4780,350.000000,349.981142
3.4790,350.000000,349.991230
3.4800,350.000000,349.996040
3.4810,350.000000,350.000804
3.4820,350.000000,350.025662
3.4830,350.000000,350.018887
3.4840,350.000000,350.026469
3.4850,350.000000,350.022887
3.4860,350.000000,350.029169
3.4870,350.000000,350.018508
3.4880,350.000000,350.021701
3.4890,350.000000,349.984266
3.4900,350.000000,350.000605
3.4910,350.000000,349.994477
3.4920,350.000000,349.988131
3.4930,350.000000,349.971710
3.4940,350.000000,349.971186
3.4950,350.000000,349.967443
3.4960,350.000000,349.980856
3.4970,350.000000,349.987599
3.4980,350.000000,349.972519
3.4990,350.000000,349.993998
3.5000,350.000000,349.992852
3.5010,350.000000,350.021162
3.5020,350.000000,350.018368
3.5030,350.000000,350.016357
3.5040,350.000000,350.021498
3.5050,350.000000,350.034124
3.5060,350.000000,350.023026
3.5070,350.000000,350.004846
3.5080,350.000000,350.025980
3.5090,350.000000,350.013649
3.5100,350.000000,349.995426
3.5110,350.000000,349.997110
3.5120,350.000000,349.980701
3.5130,350.000000,349.975174
3.5140,350.000000,349.975911
3.5150,350.000000,349.980501
3.5160,350.000000,349.980634
3.5170,350.000000,349.987781
3.5180,350.000000,349.989378
3.5190,350.000000,350.003891
3.5200,350.000000,350.013471
3.5210,350.000000,350.009504
3.5220,350.000000,350.011081
3.5230,350.000000,350.017641
3.5240,350.000000,350.007076
3.5250,350.000000,350.023814
3.5260,350.000000,350.017534
3.5270,350.000000,350.013415
3.5280,350.000000,350.013436
3.5290,350.000000,349.990252
3.5300,350.000000,349.998190
3.5310,350.000000,349.993831
3.5320,350.000000,349.973218
3.5330,350.000000,349.991022
3.5340,350.000000,349.980315
3.5350,350.000000,349.985917
3.5360,350.000000,349.980234
3.5370,350.000000,349.983050
3.5380,350.000000,349.997643
3.5390,350.000000,350.002674
3.5400,350.000000,350.015094
3.5410,350.000000,350.005979
3.5420,350.000000,350.007298
3.5430,350.000000,350.009696
3.5440,350.000000,350.014541
3.5450,350.000000,350.028955
3.5460,350.000000,350.044158
3.5470,350.000000,350.031000
3.5480,350.000000,350.012178
3.5490,350.000000,350.013049
3.5500,350.000000,349.995067
3.5510,350.000000,349.988141
3.5520,350.000000,349.977098
3.5530,350.000000,349.972314
3.5540,350.000000,349.981084
3.5550,350.000000,349.987320
3.5560,350.000000,349.984955
3.5570,350.000000,349.991689
3.5580,350.000000,349.991600
3.5590,350.000000,349.991738
3.5600,350.000000,349.995217
3.5610,350.000000,350.011445
3.5620,350.000000,350.000076
3.5630,350.000000,350.013979
3.5640,350.000000,350.015915
3.5650,350.000000,350.033336
3.5660,350.000000,350.011180
3.5670,350.000000,350.026220
3.5680,350.000000,350.016565
3.5690,350.000000,350.009964
3.5700,350.000000,349.995602
3.5710,350.000000,349.980212
3.5720,350.000000,349.989221
3.5730,350.000000,349.986988
3.5740,350.000000,349.980461
3.5750,350.000000,349.974148
3.5760,350.000000,349.967363
3.5770,350.000000,349.974882
3.5780,350.000000,349.988769
3.5790,350.000000,349.985528
3.5800,350.000000,349.991560
3.5810,350.000000,349.995091
3.5820,350.000000,350.017627
3.5830,350.000000,350.022759
3.5840,350.000000,350.031278
3.5850,350.000000,350.006058
3.5860,350.000000,350.031401
3.5870,350.000000,350.027516
3.5880,350.000000,350.022958
3.5890,350.000000,350.007546
3.5900,350.000000,350.000937
3.5910,350.000000,349.993474
3.5920,350.000000,349.977733
3.5930,350.000000,349.972753
3.5940,350.000000,349.978104
3.5950,350.000000,349.973121
3.5960,350.000000,349.982007
3.5970,350.000000,349.976825
3.5980,350.000000,349.973227
3.5990,350.000000,349.980280
3.6000,350.000000,349.992972
3.6010,350.000000,350.012277
3.6020,350.000000,350.008994
3.6030,350.000000,350.020835
3.6040,350.000000,350.008467
3.6050,350.000000,350.024306
3.6060,350.000000,350.022126
3.6070,350.000000,350.027926
3.6080,350.000000,350.014317
3.6090,350.000000,350.012485
3.6100,350.000000,350.014520
3.6110,350.000000,349.991846
3.6120,350.000000,349.997095
3.6130,350.000000,349.980496
3.6140,350.000000,349.971809
3.6150,350.000000,349.974028
3.6160,350.000000,349.972007
3.6170,350.000000,349.975693
3.6180,350.000000,349.980167
3.6190,350.000000,349.989007
3.6200,350.000000,350.004524
3.6210,350.000000,349.992632
3.6220,350.000000,350.015218
3.6230,350.000000,350.019180
3.6240,350.000000,350.032690
3.6250,350.000000,350.019852
3.6260,350.000000,350.030644
3.6270,350.000000,350.011289
3.6280,350.000000,350.009206
3.6290,350.000000,350.009476
3.6300,350.000000,350.003576
3.6310,350.000000,349.989163
3.6320,350.000000,349.986364
3.6330,350.000000,349.977944
3.6340,350.000000,349.982168
3.6350,350.000000,349.973476
3.6360,350.000000,349.974026
3.6370,350.000000,349.987136
3.6380,350.000000,349.986184
3.6390,350.000000,349.996525
3.6400,350.000000,350.018570
3.6410,350.000000,349.990102
3.6420,350.000000,350.004441
3.6430,350.000000,350.010534
3.6440,350.000000,350.014523
3.6450,350.000000,350.033897
3.6460,350.000000,349.999986
3.6470,350.000000,350.021753
3.6480,350.000000,350.000314
3.6490,350.000000,350.006076
3.6500,350.000000,350.000515
3.6510,350.000000,349.998259
3.6520,350.000000,349.982180
3.6530,350.000000,349.977595
3.6540,350.000000,349.959160
3.6550,350.000000,349.992607
3.6560,350.000000,349.977977
3.6570,350.000000,349.982430
3.6580,350.000000,349.992798
3.6590,350.000000,349.990350
3.6600,350.000000,350.001681
3.6610,350.000000,350.011414
3.6620,350.000000,350.000568
3.6630,350.000000,350.021905
3.6640,350.000000,350.037654
3.6650,350.000000,350.036186
3.6660,350.000000,350.033278
3.6670,350.000000,350.032880
3.6680,350.000000,350.002194
3.6690,350.000000,350.001365
3.6700,350.000000,349.990840
3.6710,350.000000,350.018659
3.6720,350.000000,349.985943
3.6730,350.000000,349.967351
3.6740,350.000000,349.966426
3.6750,350.000000,349.974905
3.6760,350.000000,349.964302
3.6770,350.000000,349.993547
3.6780,350.000000,349.990214
3.6790,350.000000,349.993068
3.6800,350.000000,349.989534
3.6810,350.000000,349.994793
3.6820,350.000000,350.014828
3.6830,350.000000,350.018426
3.6840,350.000000,350.010451
3.6850,350.000000,350.021444
3.6860,350.000000,350.020272
3.6870,350.000000,350.023160
3.6880,350.000000,350.028779
3.6890,350.000000,349.988583
3.6900,350.000000,350.004194
3.6910,350.000000,349.984778
3.6920,350.000000,349.987013
3.6930,350.000000,349.979359
3.6940,350.000000,349.978886
3.6950,350.000000,349.963747
3.6960,350.000000,349.982605
3.6970,350.000000,349.978565
3.6980,350.000000,349.994662
3.6990,350.000000,350.002939
3.7000,350.000000,349.999492
3.7010,350.000000,350.012913
3.7020,350.000000,350.018892
3.7030,350.000000,350.027665
3.7040,350.000000,350.030475
3.7050,350.000000,350.012187
3.7060,350.000000,350.022531
3.7070,350.000000,350.005769
3.7080,350.000000,350.007371
3.7090,350.000000,350.000985
3.7100,350.000000,350.002080
3.7110,350.000000,349.988121
3.7120,350.000000,349.981975
3.7130,350.000000,349.985915
3.7140,350.000000,349.981527
3.7150,350.000000,349.975504
3.7160,350.000000,349.980444
3.7170,350.000000,349.983006
3.7180,350.000000,349.998846
3.7190,350.000000,349.988126
3.7200,350.000000,349.991176
3.7210,350.000000,350.006218
3.7220,350.000000,350.003652
3.7230,350.000000,350.013600
3.7240,350.000000,350.023532
3.7250,350.000000,350.017025
3.7260,350.000000,350.018062
3.7270,350.000000,350.014272
3.7280,350.000000,350.007658
3.7290,350.000000,349.995640
3.7300,350.000000,350.005071
3.7310,350.000000,350.000495
3.7320,350.000000,349.990434
3.7330,350.000000,349.985031
3.7340,350.000000,349.970732
3.7350,350.000000,349.974262
3.7360,350.000000,349.967777
3.7370,350.000000,349.976319
3.7380,350.000000,349.982317
3.7390,350.000000,349.978270
3.7400,350.000000,349.997801
3.7410,350.000000,349.999890
3.7420,350.000000,350.012926
3.7430,350.000000,350.014209
3.7440,350.000000,350.022246
3.7450,350.000000,350.026208
3.7460,350.000000,350.009400
3.7470,350.000000,350.013437
3.7480,350.000000,350.005476
3.7490,350.000000,350.013372
3.7500,350.000000,350.010087
3.7510,350.000000,349.989403
3.7520,350.000000,349.985584
3.7530,350.000000,349.965222
3.7540,350.000000,349.976005
3.7550,350.000000,349.970310
3.7560,350.000000,349.984398
3.7570,350.000000,349.975094
3.7580,350.000000,349.975633
3.7590,350.000000,349.978120
3.7600,350.000000,349.997702
3.7610,350.000000,349.999297
3.7620,350.000000,350.020047
3.7630,350.000000,350.020659
3.7640,350.000000,350.018168
3.7650,350.000000,350.025142
3.7660,350.000000,350.032869
3.7670,350.000000,350.006209
3.7680,350.000000,350.005071
3.7690,350.000000,350.018968
3.7700,350.000000,349.989956
3.7710,350.000000,349.993847
3.7720,350.000000,349.991328
3.7730,350.000000,349.976368
3.7740,350.000000,349.978574
3.7750,350.000000,349.969505
3.7760,350.000000,349.987537
3.7770,350.000000,349.972850
3.7780,350.000000,349.974031
3.7790,350.000000,349.995440
3.7800,350.000000,350.001398
3.7810,350.000000,350.004299
3.7820,350.000000,350.010034
3.7830,350.000000,350.011083
3.7840,350.000000,350.012554
3.7850,350.000000,350.014732
3.7860,350.000000,350.020876
3.7870,350.000000,350.013283
3.7880,350.000000,349.997670
3.7890,350.000000,349.999515
3.7900,350.000000,349.993732
3.7910,350.000000,349.992067
3.7920,350.000000,349.983605
3.7930,350.000000,349.989973
3.7940,350.000000,349.964655
3.7950,350.000000,349.975711
3.7960,350.000000,349.977510
3.7970,350.000000,349.978045
3.7980,350.000000,349.978714
3.7990,350.000000,349.982283
3.8000,350.000000,349.994811
3.8010,350.000000,349.988220
3.8020,350.000000,350.001792
3.8030,350.000000,350.006664
3.8040,350.000000,350.021870
3.8050,350.000000,350.023988
3.8060,350.000000,350.009201
3.8070,350.000000,350.003878
3.8080,350.000000,349.997293
3.8090,350.000000,350.010099
3.8100,350.000000,350.002149
3.8110,350.000000,349.992577
3.8120,350.000000,349.992685
3.8130,350.000000,349.989541
3.8140,350.000000,349.963930
3.8150,350.000000,349.967515
3.8160,350.000000,349.978055
3.8170,350.000000,349.953104
3.8180,350.000000,349.978461
3.8190,350.002198,349.997024
3.8200,350.002678,349.994397
3.8210,350.003246,350.010992
3.8220,350.003916,349.996462
3.8230,350.004700,350.020798
3.8240,350.005612,350.019128
3.8250,350.006669,350.023211
3.8260,350.007885,350.017438
3.8270,350.009277,350.035764
3.8280,350.010859,350.019761
3.8290,350.012648,350.015440
3.8300,350.014658,350.025327
3.8310,350.016903,349.996229
3.8320,350.019395,350.000515
3.8330,350.022142,349.991350
3.8340,350.025153,349.990530
3.8350,350.028431,350.000899
3.8360,350.031976,350.000866
3.8370,350.035784,350.026129
3.8380,350.039845,350.033897
3.8390,350.044146,350.029295
3.8400,350.048667,350.030169
3.8410,350.053383,350.052266
3.8420,350.058264,350.074512
3.8430,350.063275,350.069324
3.8440,350.068374,350.097726
3.8450,350.073515,350.095818
3.8460,350.078649,350.085725
3.8470,350.083721,350.091439
3.8480,350.088676,350.092178
3.8490,350.093456,350.087934
3.8500,350.098002,350.082312
3.8510,350.102257,350.083677
3.8520,350.106165,350.082413
3.8530,350.109672,350.094012
3.8540,350.112730,350.086740
3.8550,350.115295,350.088570
3.8560,350.117330,350.090554
3.8570,350.118806,350.086236
3.8580,350.119700,350.107949
3.8590,350.120000,350.102249
3.8600,350.119700,350.110117
3.8610,350.118806,350.122321
3.8620,350.117330,350.144462
3.8630,350.115295,350.123178
3.8640,350.112730,350.115470
3.8650,350.109672,350.128900
3.8660,350.106165,350.127336
3.8670,350.102257,350.111035
3.8680,350.098002,350.100157
3.8690,350.093456,350.083461
3.8700,350.088676,350.084093
3.8710,350.083721,350.084541
3.8720,350.078649,350.070884
3.8730,350.073515,350.049108
3.8740,350.068374,350.034782
3.8750,350.063275,350.034855
3.8760,350.058264,350.025324
3.8770,350.053383,350.021286
3.8780,350.048667,350.028267
3.8790,350.044146,350.039317
3.8800,350.039845,350.030655
3.8810,350.035784,350.033875
3.8820,350.031976,350.036209
3.8830,350.028431,350.046392
3.8840,350.025153,350.046958
3.8850,350.022142,350.029653
3.8860,350.019395,350.032888
3.8870,350.016903,350.037209
3.8880,350.014658,350.018086
3.8890,350.012648,350.023161
3.8900,350.010859,350.008266
3.8910,350.009277,350.007785
3.8920,350.007885,349.983121
3.8930,350.006669,349.984657
3.8940,350.005612,349.980398
3.8950,350.004700,349.981025
3.8960,350.003916,349.975581
3.8970,350.003246,349.984358
3.8980,350.002678,349.975104
3.8990,350.000000,349.983673
3.9000,350.000000,349.979589
3.9010,350.000000,349.996709
3.9020,350.000000,349.998706
3.9030,350.000000,350.013429
3.9040,350.000000,350.022035
3.9050,350.000000,350.019794
3.9060,350.000000,350.020301
3.9070,350.000000,350.011371
3.9080,350.000000,350.004127
3.9090,350.000000,349.989135
3.9100,350.000000,349.975662
3.9110,350.000000,349.971534
3.9120,350.000000,349.971558
3.9130,350.000000,349.978808
3.9140,350.000000,349.958225
3.9150,350.000000,349.960262
3.9160,350.000000,349.964202
3.9170,350.000000,349.981635
3.9180,350.000000,349.976287
3.9190,350.000000,349.984318
3.9200,349.975051,349.968946
3.9210,349.951192,349.960331
3.9220,349.929466,349.934761
3.9230,349.910823,349.906589
3.9240,349.896077,349.910344
3.9250,349.885873,349.911777
3.9260,349.880657,349.898945
3.9270,349.902636,349.914060
3.9280,349.927509,349.934687
3.9290,349.970689,349.953602
3.9300,350.037302,350.011636
3.9310,350.132282,350.122119
3.9320,350.258843,350.245074
3.9330,350.416506,350.382060
3.9340,350.599222,350.567902
3.9350,350.769416,350.740294
3.9360,350.934561,350.914880
3.9370,351.073807,351.043567
3.9380,351.167125,351.148689
3.9390,351.200000,351.198249
3.9400,351.167125,351.154554
3.9410,351.073807,351.071365
3.9420,350.934561,350.929398
3.9430,350.769416,350.769917
3.9440,350.599222,350.618529
3.9450,350.441455,350.464435
3.9460,350.307651,350.329165
3.9470,350.202816,350.203298
3.9480,350.126479,350.128222
3.9490,350.074612,350.075088
3.9500,350.041636,350.012608
3.9510,350.000000,349.985372
3.9520,350.000000,349.990020
3.9530,350.000000,349.978710
3.9540,350.000000,349.946875
3.9550,350.000000,349.968112
3.9560,350.000000,349.967785
3.9570,350.000000,349.971589
3.9580,350.000000,349.975531
3.9590,349.820000,349.798702
3.9600,349.845073,349.815149
3.9610,349.866653,349.865185
3.9620,349.885227,349.892930
3.9630,349.901214,349.904713
3.9640,349.914974,349.936342
3.9650,349.926817,349.926119
3.9660,349.937011,349.934405
3.9670,349.945785,349.954201
3.9680,349.953337,349.950257
3.9690,349.959837,349.963244
3.9700,349.965431,349.950173
3.9710,349.970246,349.961804
3.9720,349.974391,349.942565
3.9730,349.977958,349.947696
3.9740,349.981028,349.930279
3.9750,349.983671,349.947144
3.9760,349.985945,349.951548
3.9770,349.987903,349.965956
3.9780,349.989588,349.951132
3.9790,350.000000,349.978006
3.9800,350.000000,349.999255
3.9810,350.000000,350.007678
3.9820,350.000000,349.994956
3.9830,350.000000,350.001401
3.9840,350.000000,349.996644
3.9850,350.000000,349.994378
3.9860,350.000000,350.007021
3.9870,350.000000,350.001507
3.9880,350.000000,350.017797
3.9890,350.000000,349.997341
3.9900,350.000000,349.985419
3.9910,350.000000,349.984864
3.9920,350.000000,349.981098
3.9930,350.000000,349.977215
3.9940,350.000000,349.966117
3.9950,350.000000,349.962621
3.9960,350.000000,349.965194
3.9970,350.000000,349.966814
3.9980,350.000000,349.968301
3.9990,350.000000,349.987515
4.0000,350.000000,349.984986
4.0010,350.000000,349.985774
4.0020,350.000000,350.000687
4.0030,350.000000,350.011509
4.0040,350.000000,349.997480
4.0050,350.000000,350.008094
4.0060,350.000000,350.002596
4.0070,350.000000,350.023008
4.0080,350.000000,350.000913
4.0090,350.000000,350.005849
4.0100,350.000000,349.987910
4.0110,350.000000,349.981150
4.0120,350.000000,349.971242
4.0130,350.000000,349.964582
4.0140,350.000000,349.962307
4.0150,350.000000,349.956406
4.0160,350.000000,349.962693
4.0170,350.000000,349.953142
4.0180,350.000000,349.972769
4.0190,350.006594,349.974968
4.0200,350.007283,349.993408
4.0210,350.008033,350.003328
4.0220,350.008851,350.019545
4.0230,350.009739,350.016881
4.0240,350.010703,350.016529
4.0250,350.011747,350.015788
4.0260,350.012877,350.026445
4.0270,350.014099,350.017674
4.0280,350.015417,350.008395
4.0290,350.016837,350.010311
4.0300,350.018366,349.988280
4.0310,350.020007,349.997940
4.0320,350.021769,349.986066
4.0330,350.023656,349.986215
4.0340,350.025674,350.003327
4.0350,350.027830,349.984411
4.0360,350.030129,349.998024
4.0370,350.032577,350.005895
4.0380,350.035180,350.012182
4.0390,350.037944,350.017713
4.0400,350.040873,350.016167
4.0410,350.043974,350.030279
4.0420,350.047251,350.036062
4.0430,350.050709,350.051277
4.0440,350.054352,350.058360
4.0450,350.058184,350.058716
4.0460,350.062208,350.073191
4.0470,350.066427,350.065612
4.0480,350.070844,350.065701
4.0490,350.075460,350.053915
4.0500,350.080277,350.064357
4.0510,350.085294,350.060586
4.0520,350.090512,350.055007
4.0530,350.095929,350.062896
4.0540,350.101543,350.062939
4.0550,350.107351,350.071258
4.0560,350.113350,350.078728
4.0570,350.119534,350.088916
4.0580,350.125899,350.108154
4.0590,350.132437,350.108997
4.0600,350.139140,350.114454
4.0610,350.146000,350.132794
4.0620,350.153006,350.146640
4.0630,350.160149,350.154894
4.0640,350.167416,350.152756
4.0650,350.174793,350.183199
4.0660,350.182268,350.187853
4.0670,350.189825,350.206977
4.0680,350.197449,350.208717
4.0690,350.205122,350.200269
4.0700,350.212827,350.199554
4.0710,350.220546,350.188651
4.0720,350.228259,350.197753
4.0730,350.235946,350.197623
4.0740,350.243588,350.203888
4.0750,350.251163,350.202904
4.0760,350.258651,350.221003
4.0770,350.266029,350.217415
4.0780,350.273275,350.265142
4.0790,350.280368,350.266151
4.0800,350.287286,350.279458
4.0810,350.294007,350.272707
4.0820,350.300509,350.283069
4.0830,350.306772,350.309737
4.0840,350.312773,350.314445
4.0850,350.318494,350.338489
4.0860,350.323914,350.332907
4.0870,350.329015,350.329178
4.0880,350.333779,350.340732
4.0890,350.338189,350.328000
4.0900,350.342229,350.324930
4.0910,350.345884,350.327604
4.0920,350.349142,350.310346
4.0930,350.351990,350.321384
4.0940,350.354419,350.316712
4.0950,350.356418,350.305573
4.0960,350.357981,350.331271
4.0970,350.359101,350.316406
4.0980,350.359775,350.312903
4.0990,350.360000,350.326603
4.1000,350.359775,350.331659
4.1010,350.359101,350.348182
4.1020,350.357981,350.365096
4.1030,350.356418,350.357781
4.1040,350.354419,350.369817
4.1050,350.351990,350.364338
4.1060,350.349142,350.330379
4.1070,350.345884,350.352168
4.1080,350.342229,350.331287
4.1090,350.338189,350.329235
4.1100,350.333779,350.312772
4.1110,350.329015,350.323272
4.1120,350.323914,350.292607
4.1130,350.318494,350.282987
4.1140,350.312773,350.277740
4.1150,350.306772,350.249953
4.1160,350.300509,350.265373
4.1170,350.294007,350.251814
4.1180,350.287286,350.246523
4.1190,350.280368,350.258314
4.1200,350.273275,350.240097
4.1210,350.266029,350.259611
4.1220,350.258651,350.250079
4.1230,350.251163,350.248286
4.1240,350.243588,350.226893
4.1250,350.235946,350.245509
4.1260,350.228259,350.231350
4.1270,350.220546,350.214435
4.1280,350.212827,350.197650
4.1290,350.205122,350.196852
4.1300,350.197449,350.178221
4.1310,350.189825,350.160362
4.1320,350.182268,350.138092
4.1330,350.174793,350.135560
4.1340,350.167416,350.124222
4.1350,350.160149,350.124286
