time_s,ecg_clean_mv,ecg_noisy_mv
0.0000,300.000000,300.016872
0.0010,300.000000,300.016163
0.0020,300.000000,300.010400
0.0030,300.000000,300.002277
0.0040,300.000000,300.028811
0.0050,300.000000,300.025732
0.0060,300.000000,300.006992
0.0070,300.000000,300.050873
0.0080,300.000000,300.024039
0.0090,300.000000,300.003029
0.0100,300.000000,300.005275
0.0110,300.000000,300.000024
0.0120,300.000000,299.990741
0.0130,300.000000,299.970926
0.0140,300.000000,299.980541
0.0150,300.000000,299.973714
0.0160,300.000000,299.980416
0.0170,300.000000,299.967820
0.0180,300.000000,299.996943
0.0190,300.000000,300.010358
0.0200,300.000000,300.002058
0.0210,300.000000,300.024762
0.0220,300.000000,300.022176
0.0230,300.000000,300.018480
0.0240,300.000000,300.014382
0.0250,300.000000,300.008387
0.0260,300.000000,300.020193
0.0270,300.000000,300.031969
0.0280,300.001832,300.033760
0.0290,300.002231,300.012094
0.0300,300.002705,300.001339
0.0310,300.003263,299.988210
0.0320,300.003916,300.003976
0.0330,300.004677,299.995511
0.0340,300.005558,299.986767
0.0350,300.006571,299.996184
0.0360,300.007730,299.997323
0.0370,300.009049,300.009109
0.0380,300.010540,300.019415
0.0390,300.012215,299.993543
0.0400,300.014086,300.030662
0.0410,300.016162,300.028415
0.0420,300.018452,300.026833
0.0430,300.020961,300.033288
0.0440,300.023693,300.049111
0.0450,300.026647,300.058142
0.0460,300.029820,300.053568
0.0470,300.033204,300.051602
0.0480,300.036788,300.047102
0.0490,300.040555,300.061411
0.0500,300.044486,300.067002
0.0510,300.048554,300.061905
0.0520,300.052729,300.053654
0.0530,300.056978,300.050278
0.0540,300.061263,300.050185
0.0550,300.065541,300.048370
0.0560,300.069768,300.055838
0.0570,300.073897,300.061778
0.0580,300.077880,300.087071
0.0590,300.081669,300.076095
0.0600,300.085214,300.091739
0.0610,300.088471,300.119877
0.0620,300.091393,300.114223
0.0630,300.093941,300.118155
0.0640,300.096079,300.132875
0.0650,300.097775,300.137804
0.0660,300.099005,300.129038
0.0670,300.099750,300.124560
0.0680,300.100000,300.120193
0.0690,300.099750,300.109159
0.0700,300.099005,300.110989
0.0710,300.097775,300.104668
0.0720,300.096079,300.079338
0.0730,300.093941,300.087877
0.0740,300.091393,300.082402
0.0750,300.088471,300.076808
0.0760,300.085214,300.077932
0.0770,300.081669,300.077852
0.0780,300.077880,300.079312
0.0790,300.073897,300.095503
0.0800,300.069768,300.077124
0.0810,300.065541,300.087499
0.0820,300.061263,300.079373
0.0830,300.056978,300.097720
0.0840,300.052729,300.092000
0.0850,300.048554,300.082740
0.0860,300.044486,300.071352
0.0870,300.040555,300.066232
0.0880,300.036788,300.067697
0.0890,300.033204,300.050420
0.0900,300.029820,300.030002
0.0910,300.026647,300.046207
0.0920,300.023693,300.040064
0.0930,300.020961,300.008840
0.0940,300.018452,299.999656
0.0950,300.016162,300.030453
0.0960,300.014086,300.031737
0.0970,300.012215,300.011098
0.0980,300.010540,300.024114
0.0990,300.009049,300.019706
0.1000,300.007730,300.017154
0.1010,300.006571,300.033479
0.1020,300.005558,300.032903
0.1030,300.004677,300.036172
0.1040,300.003916,300.063265
0.1050,300.003263,300.052098
0.1060,300.002705,300.054524
0.1070,300.002231,300.057835
0.1080,300.000000,300.052089
0.1090,300.000000,300.028715
0.1100,300.000000,300.029664
0.1110,300.000000,300.015669
0.1120,300.000000,300.005066
0.1130,300.000000,300.017013
0.1140,300.000000,299.999853
0.1150,300.000000,300.011159
0.1160,300.000000,300.011507
0.1170,300.000000,300.004497
0.1180,300.000000,300.000307
0.1190,300.000000,300.033240
0.1200,300.000000,300.014420
0.1210,300.000000,300.031642
0.1220,300.000000,300.037207
0.1230,300.000000,300.035035
0.1240,300.000000,300.040978
0.1250,300.000000,300.033813
0.1260,300.000000,300.053492
0.1270,300.000000,300.039292
0.1280,300.000000,300.036239
0.1290,299.979209,300.001328
0.1300,299.959326,299.980017
0.1310,299.941221,299.943494
0.1320,299.925686,299.936630
0.1330,299.913397,299.925533
0.1340,299.904894,299.910286
0.1350,299.900548,299.923410
0.1360,299.918863,299.908702
0.1370,299.939591,299.946373
0.1380,299.975574,299.982409
0.1390,300.031085,300.040941
0.1400,300.110235,300.122407
0.1410,300.215702,300.248067
0.1420,300.347088,300.378086
0.1430,300.499352,300.555082
0.1440,300.641180,300.702669
0.1450,300.778801,300.816002
0.1460,300.894839,300.940598
0.1470,300.972604,301.027036
0.1480,301.000000,301.038834
0.1490,300.972604,301.022026
0.1500,300.894839,300.938119
0.1510,300.778801,300.782681
0.1520,300.641180,300.670143
0.1530,300.499352,300.501386
0.1540,300.367879,300.385432
0.1550,300.256376,300.272899
0.1560,300.169013,300.177909
0.1570,300.105399,300.134453
0.1580,300.062177,300.071498
0.1590,300.034697,300.054851
0.1600,300.000000,300.021429
0.1610,300.000000,300.026092
0.1620,300.000000,300.031470
0.1630,300.000000,300.053839
0.1640,300.000000,300.048027
0.1650,300.000000,300.041646
0.1660,300.000000,300.047197
0.1670,300.000000,300.044774
0.1680,299.850000,299.905460
0.1690,299.870894,299.900181
0.1700,299.888877,299.898712
0.1710,299.904356,299.925065
0.1720,299.917678,299.949249
0.1730,299.929145,299.954614
0.1740,299.939015,299.942308
0.1750,299.947509,299.961154
0.1760,299.954821,299.972164
0.1770,299.961114,299.969634
0.1780,299.966530,299.991386
0.1790,299.971193,299.997778
0.1800,299.975205,299.999339
0.1810,299.978659,300.019596
0.1820,299.981632,300.030390
0.1830,299.984190,300.032733
0.1840,299.986392,300.027687
0.1850,299.988288,300.055840
0.1860,299.989919,300.049231
0.1870,299.991323,300.038441
0.1880,300.000000,300.059708
0.1890,300.000000,300.026347
0.1900,300.000000,300.053695
0.1910,300.000000,300.026756
0.1920,300.000000,300.017224
0.1930,300.000000,300.010091
0.1940,300.000000,300.025670
0.1950,300.000000,300.015776
0.1960,300.000000,300.019780
0.1970,300.000000,300.019110
0.1980,300.000000,300.017635
0.1990,300.000000,300.036279
0.2000,300.000000,300.042136
0.2010,300.000000,300.055528
0.2020,300.000000,300.044195
0.2030,300.000000,300.039743
0.2040,300.000000,300.069761
0.2050,300.000000,300.069724
0.2060,300.000000,300.057276
0.2070,300.000000,300.070645
0.2080,300.000000,300.061816
0.2090,300.000000,300.038757
0.2100,300.000000,300.053305
0.2110,300.000000,300.049962
0.2120,300.000000,300.021508
0.2130,300.000000,300.021191
0.2140,300.000000,300.027866
0.2150,300.000000,300.012556
0.2160,300.000000,300.028415
0.2170,300.000000,300.018227
0.2180,300.000000,300.027502
0.2190,300.000000,300.036855
0.2200,300.000000,300.041971
0.2210,300.000000,300.060906
0.2220,300.000000,300.043263
0.2230,300.000000,300.057178
0.2240,300.000000,300.053798
0.2250,300.000000,300.056104
0.2260,300.000000,300.051920
0.2270,300.000000,300.048042
0.2280,300.005495,300.056757
0.2290,300.006069,300.058402
0.2300,300.006694,300.050369
0.2310,300.007375,300.061535
0.2320,300.008116,300.048774
0.2330,300.008919,300.018825
0.2340,300.009789,300.044361
0.2350,300.010731,300.032091
0.2360,300.011749,300.034007
0.2370,300.012848,300.040708
0.2380,300.014031,300.055543
0.2390,300.015305,300.045367
0.2400,300.016673,300.070021
0.2410,300.018141,300.070476
0.2420,300.019713,300.080987
0.2430,300.021395,300.077822
0.2440,300.023191,300.074859
0.2450,300.025107,300.104226
0.2460,300.027147,300.094849
0.2470,300.029317,300.089226
0.2480,300.031620,300.098689
0.2490,300.034061,300.091311
0.2500,300.036645,300.070308
0.2510,300.039376,300.081375
0.2520,300.042258,300.071716
0.2530,300.045293,300.081252
0.2540,300.048486,300.081059
0.2550,300.051840,300.067061
0.2560,300.055356,300.080802
0.2570,300.059037,300.085734
0.2580,300.062883,300.090123
0.2590,300.066897,300.118147
0.2600,300.071078,300.112779
0.2610,300.075426,300.112794
0.2620,300.079940,300.132345
0.2630,300.084619,300.141854
0.2640,300.089459,300.169094
0.2650,300.094458,300.164765
0.2660,300.099612,300.154155
0.2670,300.104916,300.184124
0.2680,300.110364,300.181656
0.2690,300.115950,300.178794
0.2700,300.121666,300.148584
0.2710,300.127505,300.172257
0.2720,300.133457,300.191895
0.2730,300.139513,300.184072
0.2740,300.145661,300.165530
0.2750,300.151890,300.197943
0.2760,300.158188,300.192111
0.2770,300.164541,300.204490
0.2780,300.170935,300.211028
0.2790,300.177356,300.227235
0.2800,300.183788,300.238403
0.2810,300.190215,300.240710
0.2820,300.196622,300.256455
0.2830,300.202990,300.283184
0.2840,300.209303,300.298284
0.2850,300.215542,300.297077
0.2860,300.221691,300.291538
0.2870,300.227729,300.282147
0.2880,300.233640,300.302888
0.2890,300.239405,300.298534
0.2900,300.245006,300.289756
0.2910,300.250424,300.291190
0.2920,300.255643,300.289465
0.2930,300.260645,300.291758
0.2940,300.265412,300.304402
0.2950,300.269929,300.287085
0.2960,300.274179,300.308692
0.2970,300.278149,300.325986
0.2980,300.281824,300.333780
0.2990,300.285191,300.342925
0.3000,300.288237,300.331167
0.3010,300.290952,300.344701
0.3020,300.293325,300.385289
0.3030,300.295349,300.352122
0.3040,300.297015,300.394696
0.3050,300.298317,300.360407
0.3060,300.299251,300.374845
0.3070,300.299813,300.380846
0.3080,300.300000,300.361789
0.3090,300.299813,300.365316
0.3100,300.299251,300.345541
0.3110,300.298317,300.353105
0.3120,300.297015,300.335453
0.3130,300.295349,300.347751
0.3140,300.293325,300.333866
0.3150,300.290952,300.326845
0.3160,300.288237,300.325480
0.3170,300.285191,300.333919
0.3180,300.281824,300.329491
0.3190,300.278149,300.332446
0.3200,300.274179,300.330175
0.3210,300.269929,300.337981
0.3220,300.265412,300.341927
0.3230,300.260645,300.336227
0.3240,300.255643,300.339213
0.3250,300.250424,300.314135
0.3260,300.245006,300.305042
0.3270,300.239405,300.319940
0.3280,300.233640,300.300358
0.3290,300.227729,300.286506
0.3300,300.221691,300.282020
0.3310,300.215542,300.280615
0.3320,300.209303,300.253324
0.3330,300.202990,300.249512
0.3340,300.196622,300.231440
0.3350,300.190215,300.220464
0.3360,300.183788,300.227359
0.3370,300.177356,300.205700
0.3380,300.170935,300.206038
0.3390,300.164541,300.209098
0.3400,300.158188,300.215945
0.3410,300.151890,300.217315
0.3420,300.145661,300.224655
0.3430,300.139513,300.217437
0.3440,300.133457,300.211841
0.3450,300.127505,300.221619
0.3460,300.121666,300.192691
0.3470,300.115950,300.193119
0.3480,300.110364,300.181552
0.3490,300.104916,300.171691
0.3500,300.099612,300.157343
0.3510,300.094458,300.134369
0.3520,300.089459,300.134156
0.3530,300.084619,300.142376
0.3540,300.079940,300.140213
0.3550,300.075426,300.106982
0.3560,300.071078,300.114142
0.3570,300.066897,300.095022
0.3580,300.062883,300.126344
0.3590,300.059037,300.112136
0.3600,300.055356,300.147742
0.3610,300.051840,300.138945
0.3620,300.048486,300.120131
0.3630,300.045293,300.141999
0.3640,300.042258,300.129683
0.3650,300.039376,300.115577
0.3660,300.036645,300.126031
0.3670,300.034061,300.115897
0.3680,300.031620,300.099609
0.3690,300.029317,300.102408
0.3700,300.027147,300.086125
0.3710,300.025107,300.085250
0.3720,300.023191,300.080895
0.3730,300.021395,300.070677
0.3740,300.019713,300.084596
0.3750,300.018141,300.049995
0.3760,300.016673,300.062995
0.3770,300.015305,300.068108
0.3780,300.014031,300.070237
0.3790,300.012848,300.096419
0.3800,300.011749,300.079579
0.3810,300.010731,300.083574
0.3820,300.009789,300.099117
0.3830,300.008919,300.074734
0.3840,300.008116,300.094374
0.3850,300.007375,300.085128
0.3860,300.006694,300.085258
0.3870,300.006069,300.101691
0.3880,300.000000,300.081442
0.3890,300.000000,300.087939
0.3900,300.000000,300.069332
0.3910,300.000000,300.083115
0.3920,300.000000,300.051860
0.3930,300.000000,300.058481
0.3940,300.000000,300.040053
0.3950,300.000000,300.050847
0.3960,300.000000,300.049649
0.3970,300.000000,300.063947
0.3980,300.000000,300.041486
0.3990,300.000000,300.063818
0.4000,300.000000,300.062158
0.4010,300.000000,300.069016
0.4020,300.000000,300.086454
0.4030,300.000000,300.095616
0.4040,300.000000,300.080629
0.4050,300.000000,300.099533
0.4060,300.000000,300.104941
0.4070,300.000000,300.085765
0.4080,300.000000,300.109436
0.4090,300.000000,300.074844
0.4100,300.000000,300.069445
0.4110,300.000000,300.053630
0.4120,300.000000,300.054810
0.4130,300.000000,300.061033
0.4140,300.000000,300.066964
0.4150,300.000000,300.053069
0.4160,300.000000,300.073040
0.4170,300.000000,300.060441
0.4180,300.000000,300.057731
0.4190,300.000000,300.083167
0.4200,300.000000,300.089257
0.4210,300.000000,300.086049
0.4220,300.000000,300.069544
0.4230,300.000000,300.088442
0.4240,300.000000,300.101775
0.4250,300.000000,300.084833
0.4260,300.000000,300.096312
0.4270,300.000000,300.096791
0.4280,300.000000,300.085636
0.4290,300.000000,300.089946
0.4300,300.000000,300.069462
0.4310,300.000000,300.054883
0.4320,300.000000,300.060183
0.4330,300.000000,300.085832
0.4340,300.000000,300.068256
0.4350,300.000000,300.053876
0.4360,300.000000,300.059824
0.4370,300.000000,300.065344
0.4380,300.000000,300.064324
0.4390,300.000000,300.071362
0.4400,300.000000,300.079873
0.4410,300.000000,300.072596
0.4420,300.000000,300.090848
0.4430,300.000000,300.093995
0.4440,300.000000,300.091221
0.4450,300.000000,300.110795
0.4460,300.000000,300.109894
0.4470,300.000000,300.100183
0.4480,300.000000,300.098035
0.4490,300.000000,300.079199
0.4500,300.000000,300.066554
0.4510,300.000000,300.056660
0.4520,300.000000,300.073610
0.4530,300.000000,300.070522
0.4540,300.000000,300.046823
0.4550,300.000000,300.071123
0.4560,300.000000,300.080464
0.4570,300.000000,300.064212
0.4580,300.000000,300.069481
0.4590,300.000000,300.069510
0.4600,300.000000,300.070131
0.4610,300.000000,300.103455
0.4620,300.000000,300.097343
0.4630,300.000000,300.105319
0.4640,300.000000,300.119105
0.4650,300.000000,300.094786
0.4660,300.000000,300.104675
0.4670,300.000000,300.114923
0.4680,300.000000,300.092754
0.4690,300.000000,300.090251
0.4700,300.000000,300.088353
0.4710,300.000000,300.072499
0.4720,300.000000,300.069748
0.4730,300.000000,300.076310
0.4740,300.000000,300.042292
0.4750,300.000000,300.061314
0.4760,300.000000,300.064521
0.4770,300.000000,300.083015
0.4780,300.000000,300.059729
0.4790,300.000000,300.080189
0.4800,300.000000,300.078721
0.4810,300.000000,300.083663
0.4820,300.000000,300.089868
0.4830,300.000000,300.107915
0.4840,300.000000,300.096350
0.4850,300.000000,300.109307
0.4860,300.000000,300.114360
0.4870,300.000000,300.082975
0.4880,300.000000,300.110675
0.4890,300.000000,300.096661
0.4900,300.000000,300.075793
0.4910,300.000000,300.100825
0.4920,300.000000,300.068248
0.4930,300.000000,300.064800
0.4940,300.000000,300.061576
0.4950,300.000000,300.054782
0.4960,300.000000,300.073785
0.4970,300.000000,300.069074
0.4980,300.000000,300.079938
0.4990,300.000000,300.097750
0.5000,300.000000,300.097408
0.5010,300.000000,300.100228
0.5020,300.000000,300.115832
0.5030,300.000000,300.089223
0.5040,300.000000,300.100775
0.5050,300.000000,300.129969
0.5060,300.000000,300.099975
0.5070,300.000000,300.126315
0.5080,300.000000,300.112413
0.5090,300.000000,300.092142
0.5100,300.000000,300.085584
0.5110,300.000000,300.093834
0.5120,300.000000,300.085498
0.5130,300.000000,300.079442
0.5140,300.000000,300.061588
0.5150,300.000000,300.078450
0.5160,300.000000,300.092396
0.5170,300.000000,300.056295
0.5180,300.000000,300.085352
0.5190,300.000000,300.075171
0.5200,300.000000,300.078074
0.5210,300.000000,300.103697
0.5220,300.000000,300.097763
0.5230,300.000000,300.112759
0.5240,300.000000,300.105609
0.5250,300.000000,300.109406
0.5260,300.000000,300.119989
0.5270,300.000000,300.103826
0.5280,300.000000,300.084281
0.5290,300.000000,300.089806
0.5300,300.000000,300.090934
0.5310,300.000000,300.089955
0.5320,300.000000,300.075644
0.5330,300.000000,300.075438
0.5340,300.000000,300.072202
0.5350,300.000000,300.080165
0.5360,300.000000,300.069215
0.5370,300.000000,300.083338
0.5380,300.000000,300.083399
0.5390,300.000000,300.086066
0.5400,300.000000,300.093449
0.5410,300.000000,300.100132
0.5420,300.000000,300.113236
0.5430,300.000000,300.096726
0.5440,300.000000,300.108351
0.5450,300.000000,300.097402
0.5460,300.000000,300.100396
0.5470,300.000000,300.106093
0.5480,300.000000,300.107477
0.5490,300.000000,300.090508
0.5500,300.000000,300.098704
0.5510,300.000000,300.085575
0.5520,300.000000,300.084574
0.5530,300.000000,300.072212
0.5540,300.000000,300.080577
0.5550,300.000000,300.085531
0.5560,300.000000,300.087229
0.5570,300.000000,300.075657
0.5580,300.000000,300.104641
0.5590,300.000000,300.086955
0.5600,300.000000,300.101087
0.5610,300.000000,300.112834
0.5620,300.000000,300.118082
0.5630,300.000000,300.123963
0.5640,300.000000,300.126433
0.5650,300.000000,300.112233
0.5660,300.000000,300.112243
0.5670,300.000000,300.109989
0.5680,300.000000,300.111575
0.5690,300.000000,300.077553
0.5700,300.000000,300.116888
0.5710,300.000000,300.097958
0.5720,300.000000,300.082300
0.5730,300.000000,300.071136
0.5740,300.000000,300.071879
0.5750,300.000000,300.067933
0.5760,300.000000,300.079341
0.5770,300.000000,300.064408
0.5780,300.000000,300.108614
0.5790,300.000000,300.090462
0.5800,300.000000,300.101801
0.5810,300.000000,300.092190
0.5820,300.000000,300.118267
0.5830,300.000000,300.114688
0.5840,300.000000,300.106506
0.5850,300.000000,300.123213
0.5860,300.000000,300.115593
0.5870,300.000000,300.108078
0.5880,300.000000,300.104017
0.5890,300.000000,300.099855
0.5900,300.000000,300.093894
0.5910,300.000000,300.095553
0.5920,300.000000,300.066910
0.5930,300.000000,300.077206
0.5940,300.000000,300.085067
0.5950,300.000000,300.067113
0.5960,300.000000,300.078392
0.5970,300.000000,300.096337
0.5980,300.000000,300.073419
0.5990,300.000000,300.084508
0.6000,300.000000,300.109456
0.6010,300.000000,300.118327
0.6020,300.000000,300.118447
0.6030,300.000000,300.112315
0.6040,300.000000,300.120392
0.6050,300.000000,300.114922
0.6060,300.000000,300.121736
0.6070,300.000000,300.128508
0.6080,300.000000,300.118689
0.6090,300.000000,300.105822
0.6100,300.000000,300.110193
0.6110,300.000000,300.092252
0.6120,300.000000,300.099911
0.6130,300.000000,300.083513
0.6140,300.000000,300.066652
0.6150,300.000000,300.084698
0.6160,300.000000,300.083558
0.6170,300.000000,300.103200
0.6180,300.000000,300.107043
0.6190,300.000000,300.102726
0.6200,300.000000,300.093371
0.6210,300.000000,300.108831
0.6220,300.000000,300.097263
0.6230,300.000000,300.118708
0.6240,300.000000,300.106521
0.6250,300.000000,300.134018
0.6260,300.000000,300.126218
0.6270,300.000000,300.121307
0.6280,300.000000,300.128153
0.6290,300.000000,300.112664
0.6300,300.000000,300.104067
0.6310,300.000000,300.083772
0.6320,300.000000,300.100914
0.6330,300.000000,300.088968
0.6340,300.000000,300.092895
0.6350,300.000000,300.076657
0.6360,300.000000,300.076353
0.6370,300.000000,300.094066
0.6380,300.000000,300.100233
0.6390,300.000000,300.112854
0.6400,300.000000,300.095707
0.6410,300.000000,300.116153
0.6420,300.000000,300.118830
0.6430,300.000000,300.112052
0.6440,300.000000,300.115561
0.6450,300.000000,300.129799
0.6460,300.000000,300.131226
0.6470,300.000000,300.116985
0.6480,300.000000,300.111328
0.6490,300.000000,300.097505
0.6500,300.000000,300.135080
0.6510,300.000000,300.093158
0.6520,300.000000,300.083406
0.6530,300.000000,300.096321
0.6540,300.000000,300.084093
0.6550,300.000000,300.083920
0.6560,300.000000,300.078313
0.6570,300.000000,300.094509
0.6580,300.000000,300.083998
0.6590,300.000000,300.088272
0.6600,300.000000,300.102813
0.6610,300.000000,300.108677
0.6620,300.000000,300.125037
0.6630,300.000000,300.109018
0.6640,300.000000,300.134603
0.6650,300.000000,300.135809
0.6660,300.000000,300.136456
0.6670,300.000000,300.111361
0.6680,300.000000,300.108821
0.6690,300.000000,300.118926
0.6700,300.000000,300.129895
0.6710,300.000000,300.101042
0.6720,300.000000,300.099830
0.6730,300.000000,300.081016
0.6740,300.000000,300.090436
0.6750,300.000000,300.086430
0.6760,300.000000,300.094750
0.6770,300.000000,300.099735
0.6780,300.000000,300.100372
0.6790,300.000000,300.096597
0.6800,300.000000,300.098115
0.6810,300.000000,300.124348
0.6820,300.000000,300.125337
0.6830,300.000000,300.136025
0.6840,300.000000,300.124802
0.6850,300.000000,300.113640
0.6860,300.000000,300.103424
0.6870,300.000000,300.109170
0.6880,300.000000,300.112066
0.6890,300.000000,300.112970
0.6900,300.000000,300.105004
0.6910,300.000000,300.105159
0.6920,300.000000,300.081969
0.6930,300.000000,300.102118
0.6940,300.000000,300.105201
0.6950,300.000000,300.091112
0.6960,300.000000,300.086158
0.6970,300.000000,300.092478
0.6980,300.000000,300.113027
0.6990,300.000000,300.113229
0.7000,300.000000,300.118359
0.7010,300.000000,300.113898
0.7020,300.000000,300.120577
0.7030,300.000000,300.117556
0.7040,300.000000,300.118188
0.7050,300.000000,300.131839
0.7060,300.000000,300.120890
0.7070,300.000000,300.109876
0.7080,300.000000,300.129661
0.7090,300.000000,300.111639
0.7100,300.000000,300.115432
0.7110,300.000000,300.105573
0.7120,300.000000,300.085410
0.7130,300.000000,300.085178
0.7140,300.000000,300.095132
0.7150,300.000000,300.068824
0.7160,300.000000,300.085651
0.7170,300.000000,300.089248
0.7180,300.000000,300.106754
0.7190,300.000000,300.104578
0.7200,300.000000,300.137514
0.7210,300.000000,300.123256
0.7220,300.000000,300.118942
0.7230,300.000000,300.126761
0.7240,300.000000,300.111566
0.7250,300.000000,300.129806
0.7260,300.000000,300.120582
0.7270,300.000000,300.120059
0.7280,300.000000,300.120024
0.7290,300.000000,300.134668
0.7300,300.000000,300.124347
0.7310,300.000000,300.098883
0.7320,300.000000,300.081156
0.7330,300.000000,300.093140
0.7340,300.000000,300.079275
0.7350,300.000000,300.088294
0.7360,300.000000,300.088013
0.7370,300.000000,300.106339
0.7380,300.000000,300.109510
0.7390,300.000000,300.104412
0.7400,300.000000,300.114951
0.7410,300.000000,300.123193
0.7420,300.000000,300.116843
0.7430,300.000000,300.106581
0.7440,300.000000,300.142308
0.7450,300.000000,300.140852
0.7460,300.000000,300.136002
0.7470,300.000000,300.137948
0.7480,300.000000,300.118129
0.7490,300.000000,300.113960
0.7500,300.000000,300.101844
0.7510,300.000000,300.112700
0.7520,300.000000,300.104871
0.7530,300.000000,300.097925
0.7540,300.000000,300.096243
0.7550,300.000000,300.082791
0.7560,300.000000,300.087890
0.7570,300.000000,300.089590
0.7580,300.000000,300.112352
0.7590,300.000000,300.096227
0.7600,300.000000,300.115431
0.7610,300.000000,300.130614
0.7620,300.000000,300.123038
0.7630,300.000000,300.143088
0.7640,300.000000,300.129882
0.7650,300.000000,300.148959
0.7660,300.000000,300.136423
0.7670,300.000000,300.135801
0.7680,300.000000,300.122872
0.7690,300.000000,300.117446
0.7700,300.000000,300.112758
0.7710,300.000000,300.113176
0.7720,300.000000,300.099811
0.7730,300.000000,300.096581
0.7740,300.000000,300.085133
0.7750,300.000000,300.097870
0.7760,300.000000,300.098200
0.7770,300.000000,300.113833
0.7780,300.000000,300.118047
0.7790,300.000000,300.117891
0.7800,300.000000,300.104656
0.7810,300.000000,300.117721
0.7820,300.000000,300.124203
0.7830,300.000000,300.143596
0.7840,300.000000,300.147815
0.7850,300.000000,300.138953
0.7860,300.000000,300.121881
0.7870,300.000000,300.145803
0.7880,300.000000,300.114667
0.7890,300.000000,300.119677
0.7900,300.000000,300.125543
0.7910,300.000000,300.123468
0.7920,300.000000,300.107601
0.7930,300.000000,300.098640
0.7940,300.000000,300.088763
0.7950,300.000000,300.091287
0.7960,300.000000,300.093245
0.7970,300.000000,300.090373
0.7980,300.000000,300.108117
0.7990,300.000000,300.101431
0.8000,300.000000,300.109352
0.8010,300.000000,300.108530
0.8020,300.000000,300.137290
0.8030,300.000000,300.133229
0.8040,300.000000,300.139095
0.8050,300.000000,300.140504
0.8060,300.000000,300.131590
0.8070,300.000000,300.124794
0.8080,300.000000,300.148404
0.8090,300.000000,300.121455
0.8100,300.000000,300.112928
0.8110,300.000000,300.142029
0.8120,300.000000,300.101121
0.8130,300.000000,300.101399
0.8140,300.000000,300.092068
0.8150,300.000000,300.110935
0.8160,300.000000,300.094820
0.8170,300.000000,300.107523
0.8180,300.000000,300.116524
0.8190,300.000000,300.118380
0.8200,300.001832,300.110951
0.8210,300.002231,300.137478
0.8220,300.002705,300.138309
0.8230,300.003263,300.139827
0.8240,300.003916,300.144774
0.8250,300.004677,300.129839
0.8260,300.005558,300.164610
0.8270,300.006571,300.157560
0.8280,300.007730,300.151992
0.8290,300.009049,300.133823
0.8300,300.010540,300.131314
0.8310,300.012215,300.136560
0.8320,300.014086,300.125887
0.8330,300.016162,300.110479
0.8340,300.018452,300.108276
0.8350,300.020961,300.108531
0.8360,300.023693,300.116143
0.8370,300.026647,300.124104
0.8380,300.029820,300.138779
0.8390,300.033204,300.161415
0.8400,300.036788,300.152061
0.8410,300.040555,300.175053
0.8420,300.044486,300.177052
0.8430,300.048554,300.181885
0.8440,300.052729,300.197905
0.8450,300.056978,300.195933
0.8460,300.061263,300.203763
0.8470,300.065541,300.181141
0.8480,300.069768,300.199444
0.8490,300.073897,300.206527
0.8500,300.077880,300.209199
0.8510,300.081669,300.209558
0.8520,300.085214,300.210181
0.8530,300.088471,300.199708
0.8540,300.091393,300.200453
0.8550,300.093941,300.190862
0.8560,300.096079,300.203168
0.8570,300.097775,300.215316
0.8580,300.099005,300.228343
0.8590,300.099750,300.206654
0.8600,300.100000,300.219309
0.8610,300.099750,300.232268
0.8620,300.099005,300.233582
0.8630,300.097775,300.221777
0.8640,300.096079,300.246132
0.8650,300.093941,300.229445
0.8660,300.091393,300.228848
0.8670,300.088471,300.212342
0.8680,300.085214,300.202208
0.8690,300.081669,300.216613
0.8700,300.077880,300.187488
0.8710,300.073897,300.188748
0.8720,300.069768,300.187115
0.8730,300.065541,300.178669
0.8740,300.061263,300.149290
0.8750,300.056978,300.166682
0.8760,300.052729,300.147645
0.8770,300.048554,300.167096
0.8780,300.044486,300.165948
0.8790,300.040555,300.154575
0.8800,300.036788,300.163046
0.8810,300.033204,300.155740
0.8820,300.029820,300.170822
0.8830,300.026647,300.170654
0.8840,300.023693,300.164344
0.8850,300.020961,300.182458
0.8860,300.018452,300.143697
0.8870,300.016162,300.153013
0.8880,300.014086,300.143698
0.8890,300.012215,300.134091
0.8900,300.010540,300.130965
0.8910,300.009049,300.108833
0.8920,300.007730,300.103873
0.8930,300.006571,300.113571
0.8940,300.005558,300.109386
0.8950,300.004677,300.107748
0.8960,300.003916,300.089144
0.8970,300.003263,300.102509
0.8980,300.002705,300.114755
0.8990,300.002231,300.100628
0.9000,300.000000,300.115594
0.9010,300.000000,300.135074
0.9020,300.000000,300.136762
0.9030,300.000000,300.146814
0.9040,300.000000,300.146045
0.9050,300.000000,300.134305
0.9060,300.000000,300.141856
0.9070,300.000000,300.144020
0.9080,300.000000,300.117686
0.9090,300.000000,300.134371
0.9100,300.000000,300.126868
0.9110,300.000000,300.134227
0.9120,300.000000,300.091315
0.9130,300.000000,300.117616
0.9140,300.000000,300.113206
0.9150,300.000000,300.078893
0.9160,300.000000,300.098330
0.9170,300.000000,300.120329
0.9180,300.000000,300.111673
0.9190,300.000000,300.121487
0.9200,300.000000,300.115448
0.9210,299.979209,300.121027
0.9220,299.959326,300.099797
0.9230,299.941221,300.074629
0.9240,299.925686,300.078373
0.9250,299.913397,300.071445
0.9260,299.904894,300.052266
0.9270,299.900548,300.061789
0.9280,299.918863,300.050723
0.9290,299.939591,300.080433
0.9300,299.975574,300.102029
0.9310,300.031085,300.135106
0.9320,300.110235,300.225597
0.9330,300.215702,300.329421
0.9340,300.347088,300.450508
0.9350,300.499352,300.594187
0.9360,300.641180,300.741804
0.9370,300.778801,300.894869
0.9380,300.894839,301.004786
0.9390,300.972604,301.085373
0.9400,301.000000,301.125332
0.9410,300.972604,301.090035
0.9420,300.894839,301.032883
0.9430,300.778801,300.918259
0.9440,300.641180,300.786494
0.9450,300.499352,300.628641
0.9460,300.367879,300.509386
0.9470,300.256376,300.400060
0.9480,300.169013,300.309325
0.9490,300.105399,300.239086
0.9500,300.062177,300.184468
0.9510,300.034697,300.151633
0.9520,300.000000,300.129501
0.9530,300.000000,300.114841
0.9540,300.000000,300.095347
0.9550,300.000000,300.107613
0.9560,300.000000,300.123979
0.9570,300.000000,300.121498
0.9580,300.000000,300.112191
0.9590,300.000000,300.112211
0.9600,299.850000,299.970396
0.9610,299.870894,300.003049
0.9620,299.888877,300.027810
0.9630,299.904356,300.051737
0.9640,299.917678,300.053143
0.9650,299.929145,300.086277
0.9660,299.939015,300.079904
0.9670,299.947509,300.093694
0.9680,299.954821,300.103766
0.9690,299.961114,300.091669
0.9700,299.966530,300.100167
0.9710,299.971193,300.087024
0.9720,299.975205,300.089183
0.9730,299.978659,300.101071
0.9740,299.981632,300.086067
0.9750,299.984190,300.100161
0.9760,299.986392,300.086778
0.9770,299.988288,300.090475
0.9780,299.989919,300.109393
0.9790,299.991323,300.101292
0.9800,300.000000,300.126986
0.9810,300.000000,300.127886
0.9820,300.000000,300.131822
0.9830,300.000000,300.149025
0.9840,300.000000,300.152337
0.9850,300.000000,300.143855
0.9860,300.000000,300.152791
0.9870,300.000000,300.154838
0.9880,300.000000,300.151475
0.9890,300.000000,300.127060
0.9900,300.000000,300.111565
0.9910,300.000000,300.128051
0.9920,300.000000,300.114259
0.9930,300.000000,300.112511
0.9940,300.000000,300.110085
0.9950,300.000000,300.103591
0.9960,300.000000,300.127999
0.9970,300.000000,300.114968
0.9980,300.000000,300.120368
0.9990,300.000000,300.122720
1.0000,300.000000,300.137629
1.0010,300.000000,300.124595
1.0020,300.000000,300.134236
1.0030,300.000000,300.145045
1.0040,300.000000,300.158436
1.0050,300.000000,300.149720
1.0060,300.000000,300.139139
1.0070,300.000000,300.159097
1.0080,300.000000,300.133032
1.0090,300.000000,300.135923
1.0100,300.000000,300.126129
1.0110,300.000000,300.122457
1.0120,300.000000,300.106056
1.0130,300.000000,300.116759
1.0140,300.000000,300.115570
1.0150,300.000000,300.114021
1.0160,300.000000,300.107591
1.0170,300.000000,300.125675
1.0180,300.000000,300.119092
1.0190,300.000000,300.133461
1.0200,300.005495,300.136625
1.0210,300.006069,300.146457
1.0220,300.006694,300.151550
1.0230,300.007375,300.145774
1.0240,300.008116,300.167831
1.0250,300.008919,300.160066
1.0260,300.009789,300.163019
1.0270,300.010731,300.154084
1.0280,300.011749,300.143556
1.0290,300.012848,300.120954
1.0300,300.014031,300.143319
1.0310,300.015305,300.147743
1.0320,300.016673,300.142888
1.0330,300.018141,300.139462
1.0340,300.019713,300.108533
1.0350,300.021395,300.133340
1.0360,300.023191,300.119438
1.0370,300.025107,300.147781
1.0380,300.027147,300.142786
1.0390,300.029317,300.170357
1.0400,300.031620,300.163655
1.0410,300.034061,300.181063
1.0420,300.036645,300.179987
1.0430,300.039376,300.188352
1.0440,300.042258,300.199943
1.0450,300.045293,300.194722
1.0460,300.048486,300.198626
1.0470,300.051840,300.204350
1.0480,300.055356,300.212421
1.0490,300.059037,300.185188
1.0500,300.062883,300.181239
1.0510,300.066897,300.194524
1.0520,300.071078,300.187152
1.0530,300.075426,300.195633
1.0540,300.079940,300.192471
1.0550,300.084619,300.187474
1.0560,300.089459,300.209128
1.0570,300.094458,300.214235
1.0580,300.099612,300.206371
1.0590,300.104916,300.225953
1.0600,300.110364,300.250047
1.0610,300.115950,300.255621
1.0620,300.121666,300.258089
1.0630,300.127505,300.289214
1.0640,300.133457,300.298250
1.0650,300.139513,300.298156
1.0660,300.145661,300.303888
1.0670,300.151890,300.283122
1.0680,300.158188,300.282498
1.0690,300.164541,300.293877
1.0700,300.170935,300.300707
1.0710,300.177356,300.278727
1.0720,300.183788,300.312221
1.0730,300.190215,300.321986
1.0740,300.196622,300.302452
1.0750,300.202990,300.318723
1.0760,300.209303,300.330673
1.0770,300.215542,300.335731
1.0780,300.221691,300.345705
1.0790,300.227729,300.363093
1.0800,300.233640,300.375815
1.0810,300.239405,300.374000
1.0820,300.245006,300.390371
1.0830,300.250424,300.413503
1.0840,300.255643,300.399559
1.0850,300.260645,300.415681
1.0860,300.265412,300.402098
1.0870,300.269929,300.406686
1.0880,300.274179,300.407097
1.0890,300.278149,300.410873
1.0900,300.281824,300.404668
1.0910,300.285191,300.413658
1.0920,300.288237,300.412363
1.0930,300.290952,300.396556
1.0940,300.293325,300.411794
1.0950,300.295349,300.389821
1.0960,300.297015,300.396699
1.0970,300.298317,300.409307
1.0980,300.299251,300.408546
1.0990,300.299813,300.426978
1.1000,300.300000,300.442575
1.1010,300.299813,300.444871
1.1020,300.299251,300.436487
1.1030,300.298317,300.441063
1.1040,300.297015,300.448617
1.1050,300.295349,300.444775
1.1060,300.293325,300.435506
1.1070,300.290952,300.443594
1.1080,300.288237,300.430129
1.1090,300.285191,300.410322
1.1100,300.281824,300.426531
1.1110,300.278149,300.403862
1.1120,300.274179,300.367132
1.1130,300.269929,300.390671
1.1140,300.265412,300.376233
1.1150,300.260645,300.368015
1.1160,300.255643,300.351577
1.1170,300.250424,300.377362
1.1180,300.245006,300.360779
1.1190,300.239405,300.339724
1.1200,300.233640,300.353242
1.1210,300.227729,300.364293
1.1220,300.221691,300.364141
1.1230,300.215542,300.354756
1.1240,300.209303,300.363566
1.1250,300.202990,300.340959
1.1260,300.196622,300.344700
1.1270,300.190215,300.337881
1.1280,300.183788,300.316135
1.1290,300.177356,300.323510
1.1300,300.170935,300.312781
1.1310,300.164541,300.288996
1.1320,300.158188,300.278563
1.1330,300.151890,300.274058
1.1340,300.145661,300.260959
1.1350,300.139513,300.248756
1.1360,300.133457,300.252992
1.1370,300.127505,300.258088
1.1380,300.121666,300.237536
1.1390,300.115950,300.235599
1.1400,300.110364,300.252692
1.1410,300.104916,300.234464
1.1420,300.099612,300.230349
1.1430,300.094458,300.239144
1.1440,300.089459,300.248023
1.1450,300.084619,300.251240
1.1460,300.079940,300.230171
1.1470,300.075426,300.223850
1.1480,300.071078,300.214900
1.1490,300.066897,300.201992
1.1500,300.062883,300.193152
1.1510,300.059037,300.189015
1.1520,300.055356,300.182228
1.1530,300.051840,300.186584
1.1540,300.048486,300.168954
1.1550,300.045293,300.158237
1.1560,300.042258,300.151703
1.1570,300.039376,300.137192
1.1580,300.036645,300.131807
1.1590,300.034061,300.150365
1.1600,300.031620,300.181848
1.1610,300.029317,300.167492
1.1620,300.027147,300.159382
1.1630,300.025107,300.173891
1.1640,300.023191,300.164652
1.1650,300.021395,300.180861
1.1660,300.019713,300.196209
1.1670,300.018141,300.162083
1.1680,300.016673,300.156501
1.1690,300.015305,300.149494
1.1700,300.014031,300.151773
1.1710,300.012848,300.125970
1.1720,300.011749,300.127421
1.1730,300.010731,300.116475
1.1740,300.009789,300.117617
1.1750,300.008919,300.133595
1.1760,300.008116,300.109108
1.1770,300.007375,300.133484
1.1780,300.006694,300.120587
1.1790,300.006069,300.124890
1.1800,300.000000,300.126181
1.1810,300.000000,300.153391
1.1820,300.000000,300.145166
1.1830,300.000000,300.131758
1.1840,300.000000,300.156537
1.1850,300.000000,300.145926
1.1860,300.000000,300.150639
1.1870,300.000000,300.133312
1.1880,300.000000,300.127389
1.1890,300.000000,300.137540
1.1900,300.000000,300.124011
1.1910,300.000000,300.121016
1.1920,300.000000,300.118077
1.1930,300.000000,300.104265
1.1940,300.000000,300.131732
1.1950,300.000000,300.125315
1.1960,300.000000,300.121289
1.1970,300.000000,300.122281
1.1980,300.000000,300.122673
1.1990,300.000000,300.120041
1.2000,300.000000,300.126590
1.2010,300.000000,300.138304
1.2020,300.000000,300.141524
1.2030,300.000000,300.132659
1.2040,300.000000,300.149711
1.2050,300.000000,300.139162
1.2060,300.000000,300.148720
1.2070,300.000000,300.144076
1.2080,300.000000,300.134871
1.2090,300.000000,300.128267
1.2100,300.000000,300.126337
1.2110,300.000000,300.130068
1.2120,300.000000,300.124185
1.2130,300.000000,300.115737
1.2140,300.000000,300.092374
1.2150,300.000000,300.123656
1.2160,300.000000,300.103578
1.2170,300.000000,300.123058
1.2180,300.000000,300.117473
1.2190,300.000000,300.119112
1.2200,300.000000,300.127028
1.2210,300.000000,300.122578
1.2220,300.000000,300.126117
1.2230,300.000000,300.136573
1.2240,300.000000,300.146421
1.2250,300.000000,300.140084
1.2260,300.000000,300.164905
1.2270,300.000000,300.130796
1.2280,300.000000,300.154689
1.2290,300.000000,300.132874
1.2300,300.000000,300.138181
1.2310,300.000000,300.119958
1.2320,300.000000,300.124564
1.2330,300.000000,300.105442
1.2340,300.000000,300.112616
1.2350,300.000000,300.090531
1.2360,300.000000,300.116481
1.2370,300.000000,300.121809
1.2380,300.000000,300.122565
1.2390,300.000000,300.124299
1.2400,300.000000,300.131548
1.2410,300.000000,300.134108
1.2420,300.000000,300.124658
1.2430,300.000000,300.153483
1.2440,300.000000,300.160131
1.2450,300.000000,300.165686
1.2460,300.000000,300.138616
1.2470,300.000000,300.149445
1.2480,300.000000,300.142172
1.2490,300.000000,300.133877
1.2500,300.000000,300.135072
1.2510,300.000000,300.137126
1.2520,300.000000,300.104220
1.2530,300.000000,300.116366
1.2540,300.000000,300.113179
1.2550,300.000000,300.107986
1.2560,300.000000,300.106161
1.2570,300.000000,300.106533
1.2580,300.000000,300.115493
1.2590,300.000000,300.116643
1.2600,300.000000,300.127117
1.2610,300.000000,300.125533
1.2620,300.000000,300.153337
1.2630,300.000000,300.135761
1.2640,300.000000,300.141886
1.2650,300.000000,300.141817
1.2660,300.000000,300.129517
1.2670,300.000000,300.146280
1.2680,300.000000,300.154244
1.2690,300.000000,300.137653
1.2700,300.000000,300.106255
1.2710,300.000000,300.108222
1.2720,300.000000,300.106364
1.2730,300.000000,300.118550
1.2740,300.000000,300.111094
1.2750,300.000000,300.120681
1.2760,300.000000,300.092145
1.2770,300.000000,300.103391
1.2780,300.000000,300.122402
1.2790,300.000000,300.119783
1.2800,300.000000,300.146884
1.2810,300.000000,300.133791
1.2820,300.000000,300.119316
1.2830,300.000000,300.135542
1.2840,300.000000,300.143177
1.2850,300.000000,300.137129
1.2860,300.000000,300.138142
1.2870,300.000000,300.145763
1.2880,300.000000,300.152385
1.2890,300.000000,300.135976
1.2900,300.000000,300.112926
1.2910,300.000000,300.130086
1.2920,300.000000,300.129085
1.2930,300.000000,300.115159
1.2940,300.000000,300.113741
1.2950,300.000000,300.103547
1.2960,300.000000,300.108701
1.2970,300.000000,300.126002
1.2980,300.000000,300.126537
1.2990,300.000000,300.110368
1.3000,300.000000,300.112076
1.3010,300.000000,300.134151
1.3020,300.000000,300.146032
1.3030,300.000000,300.131161
1.3040,300.000000,300.155305
1.3050,300.000000,300.149842
1.3060,300.000000,300.163177
1.3070,300.000000,300.138734
1.3080,300.000000,300.137814
1.3090,300.000000,300.145498
1.3100,300.000000,300.122863
1.3110,300.000000,300.126658
1.3120,300.000000,300.101679
1.3130,300.000000,300.123885
1.3140,300.000000,300.120265
1.3150,300.000000,300.108019
1.3160,300.000000,300.112095
1.3170,300.000000,300.104693
1.3180,300.000000,300.120699
1.3190,300.000000,300.119452
1.3200,300.000000,300.129083
1.3210,300.000000,300.147086
1.3220,300.000000,300.138161
1.3230,300.000000,300.156289
1.3240,300.000000,300.149506
1.3250,300.000000,300.157330
1.3260,300.000000,300.135853
1.3270,300.000000,300.145256
1.3280,300.000000,300.138080
1.3290,300.000000,300.119254
1.3300,300.000000,300.132689
1.3310,300.000000,300.133980
1.3320,300.000000,300.101102
1.3330,300.000000,300.103192
1.3340,300.000000,300.091387
1.3350,300.000000,300.083429
1.3360,300.000000,300.104162
1.3370,300.000000,300.112189
1.3380,300.000000,300.112879
1.3390,300.000000,300.108914
1.3400,300.000000,300.114078
1.3410,300.000000,300.122522
1.3420,300.000000,300.134743
1.3430,300.000000,300.134530
1.3440,300.000000,300.142933
1.3450,300.000000,300.170643
1.3460,300.000000,300.150045
1.3470,300.000000,300.145944
1.3480,300.000000,300.137487
1.3490,300.000000,300.141664
1.3500,300.000000,300.117482
1.3510,300.000000,300.110797
1.3520,300.000000,300.120019
1.3530,300.000000,300.106937
1.3540,300.000000,300.104024
1.3550,300.000000,300.115596
1.3560,300.000000,300.120402
1.3570,300.000000,300.099500
1.3580,300.000000,300.094376
1.3590,300.000000,300.108447
1.3600,300.000000,300.117147
1.3610,300.000000,300.127620
1.3620,300.000000,300.122444
1.3630,300.000000,300.145539
1.3640,300.000000,300.148410
1.3650,300.000000,300.134277
1.3660,300.000000,300.142603
1.3670,300.000000,300.153214
1.3680,300.000000,300.132492
1.3690,300.000000,300.144484
1.3700,300.000000,300.131688
1.3710,300.000000,300.115393
1.3720,300.000000,300.117734
1.3730,300.000000,300.091769
1.3740,300.000000,300.094795
1.3750,300.000000,300.096845
1.3760,300.000000,300.108326
1.3770,300.000000,300.113330
1.3780,300.000000,300.108296
1.3790,300.000000,300.122627
1.3800,300.000000,300.113804
1.3810,300.000000,300.141879
1.3820,300.000000,300.131954
1.3830,300.000000,300.138746
1.3840,300.000000,300.146940
1.3850,300.000000,300.134373
1.3860,300.000000,300.139096
1.3870,300.000000,300.126079
1.3880,300.000000,300.143057
1.3890,300.000000,300.116443
1.3900,300.000000,300.130903
1.3910,300.000000,300.121915
1.3920,300.000000,300.114549
1.3930,300.000000,300.107036
1.3940,300.000000,300.101213
1.3950,300.000000,300.091801
1.3960,300.000000,300.100956
1.3970,300.000000,300.113507
1.3980,300.000000,300.112176
1.3990,300.000000,300.106129
1.4000,300.000000,300.113616
1.4010,300.000000,300.117009
1.4020,300.000000,300.142495
1.4030,300.000000,300.137447
1.4040,300.000000,300.143517
1.4050,300.000000,300.144107
1.4060,300.000000,300.124340
1.4070,300.000000,300.143762
1.4080,300.000000,300.113679
1.4090,300.000000,300.134526
1.4100,300.000000,300.124332
1.4110,300.000000,300.111816
1.4120,300.000000,300.097506
1.4130,300.000000,300.098570
1.4140,300.000000,300.103363
1.4150,300.000000,300.100462
1.4160,300.000000,300.108997
1.4170,300.000000,300.099699
1.4180,300.000000,300.091705
1.4190,300.000000,300.114560
1.4200,300.000000,300.130878
1.4210,300.000000,300.153477
1.4220,300.000000,300.150853
1.4230,300.000000,300.153291
1.4240,300.000000,300.125006
1.4250,300.000000,300.122895
1.4260,300.000000,300.146587
1.4270,300.000000,300.146031
1.4280,300.000000,300.121817
1.4290,300.000000,300.130051
1.4300,300.000000,300.113721
1.4310,300.000000,300.129313
1.4320,300.000000,300.105483
1.4330,300.000000,300.094245
1.4340,300.000000,300.100701
1.4350,300.000000,300.106184
1.4360,300.000000,300.108095
1.4370,300.000000,300.099491
1.4380,300.000000,300.097908
1.4390,300.000000,300.118385
1.4400,300.000000,300.122830
1.4410,300.000000,300.125214
1.4420,300.000000,300.132351
1.4430,300.000000,300.131540
1.4440,300.000000,300.145522
1.4450,300.000000,300.121799
1.4460,300.000000,300.144873
1.4470,300.000000,300.130599
1.4480,300.000000,300.139470
1.4490,300.000000,300.137617
1.4500,300.000000,300.129394
1.4510,300.000000,300.109037
1.4520,300.000000,300.124531
1.4530,300.000000,300.095772
1.4540,300.000000,300.099460
1.4550,300.000000,300.099251
1.4560,300.000000,300.088490
1.4570,300.000000,300.103245
1.4580,300.000000,300.109421
1.4590,300.000000,300.110497
1.4600,300.000000,300.107267
1.4610,300.000000,300.118957
1.4620,300.000000,300.150926
1.4630,300.000000,300.124241
1.4640,300.000000,300.128716
1.4650,300.000000,300.127145
1.4660,300.000000,300.131194
1.4670,300.000000,300.134276
1.4680,300.000000,300.121676
1.4690,300.000000,300.115415
1.4700,300.000000,300.114135
1.4710,300.000000,300.138522
1.4720,300.000000,300.110970
1.4730,300.000000,300.087521
1.4740,300.000000,300.096525
1.4750,300.000000,300.092800
1.4760,300.000000,300.102860
1.4770,300.000000,300.105527
1.4780,300.000000,300.114621
1.4790,300.000000,300.093223
1.4800,300.000000,300.112402
1.4810,300.000000,300.127462
1.4820,300.000000,300.129289
1.4830,300.000000,300.137716
1.4840,300.000000,300.142925
1.4850,300.000000,300.144912
1.4860,300.000000,300.124649
1.4870,300.000000,300.136386
1.4880,300.000000,300.153540
1.4890,300.000000,300.127217
1.4900,300.000000,300.126176
1.4910,300.000000,300.105750
1.4920,300.000000,300.122940
1.4930,300.000000,300.102052
1.4940,300.000000,300.092680
1.4950,300.000000,300.091086
1.4960,300.000000,300.086663
1.4970,300.000000,300.097526
1.4980,300.000000,300.098321
1.4990,300.000000,300.098707
1.5000,300.000000,300.112205
1.5010,300.000000,300.121198
1.5020,300.000000,300.118500
1.5030,300.000000,300.125981
1.5040,300.000000,300.134722
1.5050,300.000000,300.133304
1.5060,300.000000,300.151804
1.5070,300.000000,300.136192
1.5080,300.000000,300.126761
1.5090,300.000000,300.117679
1.5100,300.000000,300.111775
1.5110,300.000000,300.110674
1.5120,300.000000,300.107295
1.5130,300.000000,300.089323
1.5140,300.000000,300.089251
1.5150,300.000000,300.090411
1.5160,300.000000,300.095425
1.5170,300.000000,300.091108
1.5180,300.000000,300.102446
1.5190,300.000000,300.105161
1.5200,300.000000,300.119182
1.5210,300.000000,300.121458
1.5220,300.000000,300.129664
1.5230,300.000000,300.139036
1.5240,300.000000,300.133349
1.5250,300.000000,300.125641
1.5260,300.000000,300.133673
1.5270,300.000000,300.122107
1.5280,300.000000,300.119660
1.5290,300.000000,300.134370
1.5300,300.000000,300.097566
1.5310,300.000000,300.115689
1.5320,300.000000,300.089154
1.5330,300.000000,300.097519
1.5340,300.000000,300.101636
1.5350,300.000000,300.070585
1.5360,300.000000,300.085539
1.5370,300.000000,300.088598
1.5380,300.000000,300.093306
1.5390,300.000000,300.103538
1.5400,300.000000,300.098762
1.5410,300.000000,300.120201
1.5420,300.000000,300.129170
1.5430,300.000000,300.120460
1.5440,300.000000,300.122199
1.5450,300.000000,300.130005
1.5460,300.000000,300.129028
1.5470,300.000000,300.129584
1.5480,300.000000,300.130709
1.5490,300.000000,300.108006
1.5500,300.000000,300.099281
1.5510,300.000000,300.116274
1.5520,300.000000,300.083299
1.5530,300.000000,300.083464
1.5540,300.000000,300.095277
1.5550,300.000000,300.077435
1.5560,300.000000,300.094704
1.5570,300.000000,300.099692
1.5580,300.000000,300.103806
1.5590,300.000000,300.105047
1.5600,300.000000,300.097841
1.5610,300.000000,300.102033
1.5620,300.000000,300.141413
1.5630,300.000000,300.131137
1.5640,300.000000,300.132730
1.5650,300.000000,300.126122
1.5660,300.000000,300.128434
1.5670,300.000000,300.098900
1.5680,300.000000,300.124200
1.5690,300.000000,300.104290
1.5700,300.000000,300.102004
1.5710,300.000000,300.096323
1.5720,300.000000,300.100166
1.5730,300.000000,300.096313
1.5740,300.000000,300.096823
1.5750,300.000000,300.100701
1.5760,300.000000,300.109263
1.5770,300.000000,300.081071
1.5780,300.000000,300.095005
1.5790,300.000000,300.087802
1.5800,300.000000,300.119677
1.5810,300.000000,300.112788
1.5820,300.000000,300.133481
1.5830,300.000000,300.136264
1.5840,300.000000,300.130232
1.5850,300.000000,300.117254
1.5860,300.000000,300.120337
1.5870,300.000000,300.131771
1.5880,300.000000,300.122467
1.5890,300.000000,300.128402
1.5900,300.001832,300.105121
1.5910,300.002231,300.103954
1.5920,300.002705,300.101142
1.5930,300.003263,300.110697
1.5940,300.003916,300.091161
1.5950,300.004677,300.091106
1.5960,300.005558,300.079425
1.5970,300.006571,300.113992
1.5980,300.007730,300.110244
1.5990,300.009049,300.104349
1.6000,300.010540,300.108268
1.6010,300.012215,300.120979
1.6020,300.014086,300.113015
1.6030,300.016162,300.164253
1.6040,300.018452,300.131353
1.6050,300.020961,300.150822
1.6060,300.023693,300.153523
1.6070,300.026647,300.149919
1.6080,300.029820,300.139037
1.6090,300.033204,300.155658
1.6100,300.036788,300.135751
1.6110,300.040555,300.128724
1.6120,300.044486,300.143733
1.6130,300.048554,300.143935
1.6140,300.052729,300.132223
1.6150,300.056978,300.129486
1.6160,300.061263,300.160216
1.6170,300.065541,300.152120
1.6180,300.069768,300.169337
1.6190,300.073897,300.170476
1.6200,300.077880,300.179965
1.6210,300.081669,300.213098
1.6220,300.085214,300.196323
1.6230,300.088471,300.209303
1.6240,300.091393,300.203021
1.6250,300.093941,300.226869
1.6260,300.096079,300.225118
1.6270,300.097775,300.217000
1.6280,300.099005,300.210004
1.6290,300.099750,300.219298
1.6300,300.100000,300.201622
1.6310,300.099750,300.207668
1.6320,300.099005,300.187336
1.6330,300.097775,300.190146
1.6340,300.096079,300.177420
1.6350,300.093941,300.166364
1.6360,300.091393,300.166927
1.6370,300.088471,300.173527
1.6380,300.085214,300.173296
1.6390,300.081669,300.178780
1.6400,300.077880,300.192123
1.6410,300.073897,300.166289
1.6420,300.069768,300.189746
1.6430,300.065541,300.180151
1.6440,300.061263,300.187719
1.6450,300.056978,300.184584
1.6460,300.052729,300.183389
1.6470,300.048554,300.167163
1.6480,300.044486,300.161019
1.6490,300.040555,300.139099
1.6500,300.036788,300.137517
1.6510,300.033204,300.117318
1.6520,300.029820,300.126761
1.6530,300.026647,300.105546
1.6540,300.023693,300.098756
1.6550,300.020961,300.110042
1.6560,300.018452,300.093971
1.6570,300.016162,300.110926
1.6580,300.014086,300.103038
1.6590,300.012215,300.104848
1.6600,300.010540,300.121996
1.6610,300.009049,300.103512
1.6620,300.007730,300.107467
1.6630,300.006571,300.125684
1.6640,300.005558,300.115485
1.6650,300.004677,300.127402
1.6660,300.003916,300.119775
1.6670,300.003263,300.115842
1.6680,300.002705,300.123442
1.6690,300.002231,300.093250
1.6700,300.000000,300.100720
1.6710,300.000000,300.125579
1.6720,300.000000,300.086731
1.6730,300.000000,300.081343
1.6740,300.000000,300.076295
1.6750,300.000000,300.079868
1.6760,300.000000,300.086686
1.6770,300.000000,300.083968
1.6780,300.000000,300.078455
1.6790,300.000000,300.083104
1.6800,300.000000,300.116643
1.6810,300.000000,300.111331
1.6820,300.000000,300.117846
1.6830,300.000000,300.112951
1.6840,300.000000,300.101071
1.6850,300.000000,300.132371
1.6860,300.000000,300.121719
1.6870,300.000000,300.105159
1.6880,300.000000,300.087289
1.6890,300.000000,300.104810
1.6900,300.000000,300.109596
1.6910,299.979209,300.066080
1.6920,299.959326,300.060030
1.6930,299.941221,300.025802
1.6940,299.925686,300.003277
1.6950,299.913397,299.992392
1.6960,299.904894,299.990824
1.6970,299.900548,299.991414
1.6980,299.918863,299.996241
1.6990,299.939591,300.018467
1.7000,299.975574,300.064678
1.7010,300.031085,300.134667
1.7020,300.110235,300.230268
1.7030,300.215702,300.326803
1.7040,300.347088,300.460841
1.7050,300.499352,300.611245
1.7060,300.641180,300.766518
1.7070,300.778801,300.887568
1.7080,300.894839,301.015961
1.7090,300.972604,301.073221
1.7100,301.000000,301.090144
1.7110,300.972604,301.051503
1.7120,300.894839,300.994197
1.7130,300.778801,300.850487
1.7140,300.641180,300.721004
1.7150,300.499352,300.588925
1.7160,300.367879,300.437105
1.7170,300.256376,300.340850
1.7180,300.169013,300.250359
1.7190,300.105399,300.196750
1.7200,300.062177,300.165811
1.7210,300.034697,300.148222
1.7220,300.000000,300.119824
1.7230,300.000000,300.115647
1.7240,300.000000,300.117915
1.7250,300.000000,300.121980
1.7260,300.000000,300.103438
1.7270,300.000000,300.099458
1.7280,300.000000,300.116543
1.7290,300.000000,300.085983
1.7300,299.850000,299.944086
1.7310,299.870894,299.945756
1.7320,299.888877,299.969464
1.7330,299.904356,299.981229
1.7340,299.917678,299.992479
1.7350,299.929145,300.011230
1.7360,299.939015,299.997119
1.7370,299.947509,300.032424
1.7380,299.954821,300.031534
1.7390,299.961114,300.035645
1.7400,299.966530,300.057800
1.7410,299.971193,300.071544
1.7420,299.975205,300.098052
1.7430,299.978659,300.058079
1.7440,299.981632,300.081173
1.7450,299.984190,300.094497
1.7460,299.986392,300.109722
1.7470,299.988288,300.099051
1.7480,299.989919,300.102037
1.7490,299.991323,300.086190
1.7500,300.000000,300.104142
1.7510,300.000000,300.079458
1.7520,300.000000,300.065955
1.7530,300.000000,300.068349
1.7540,300.000000,300.075865
1.7550,300.000000,300.076355
1.7560,300.000000,300.078148
1.7570,300.000000,300.051727
1.7580,300.000000,300.087406
1.7590,300.000000,300.080861
1.7600,300.000000,300.095472
1.7610,300.000000,300.079852
1.7620,300.000000,300.088899
1.7630,300.000000,300.103690
1.7640,300.000000,300.115829
1.7650,300.000000,300.111118
1.7660,300.000000,300.104814
1.7670,300.000000,300.087951
1.7680,300.000000,300.102481
1.7690,300.000000,300.092700
1.7700,300.000000,300.090493
1.7710,300.000000,300.085687
1.7720,300.000000,300.051989
1.7730,300.000000,300.062335
1.7740,300.000000,300.067321
1.7750,300.000000,300.080230
1.7760,300.000000,300.066366
1.7770,300.000000,300.081536
1.7780,300.000000,300.073257
1.7790,300.000000,300.084463
1.7800,300.000000,300.095906
1.7810,300.000000,300.102047
1.7820,300.000000,300.097979
1.7830,300.000000,300.103020
1.7840,300.000000,300.107408
1.7850,300.000000,300.112154
1.7860,300.000000,300.094030
1.7870,300.000000,300.103128
1.7880,300.000000,300.078551
1.7890,300.000000,300.086096
1.7900,300.005495,300.083998
1.7910,300.006069,300.099139
1.7920,300.006694,300.075983
1.7930,300.007375,300.079504
1.7940,300.008116,300.083633
1.7950,300.008919,300.078152
1.7960,300.009789,300.082619
1.7970,300.010731,300.079804
1.7980,300.011749,300.088767
1.7990,300.012848,300.103234
1.8000,300.014031,300.120185
1.8010,300.015305,300.087236
1.8020,300.016673,300.115403
1.8030,300.018141,300.102129
1.8040,300.019713,300.137679
1.8050,300.021395,300.110460
1.8060,300.023191,300.109589
1.8070,300.025107,300.161620
1.8080,300.027147,300.124125
1.8090,300.029317,300.125246
1.8100,300.031620,300.143011
1.8110,300.034061,300.127224
1.8120,300.036645,300.119327
1.8130,300.039376,300.116829
1.8140,300.042258,300.102256
1.8150,300.045293,300.102939
1.8160,300.048486,300.096791
1.8170,300.051840,300.126675
1.8180,300.055356,300.133227
1.8190,300.059037,300.147148
1.8200,300.062883,300.148292
1.8210,300.066897,300.149856
1.8220,300.071078,300.169179
1.8230,300.075426,300.179483
1.8240,300.079940,300.170194
1.8250,300.084619,300.197567
1.8260,300.089459,300.192243
1.8270,300.094458,300.197636
1.8280,300.099612,300.203826
1.8290,300.104916,300.192545
1.8300,300.110364,300.189215
1.8310,300.115950,300.228588
1.8320,300.121666,300.205073
1.8330,300.127505,300.189266
1.8340,300.133457,300.197227
1.8350,300.139513,300.204280
1.8360,300.145661,300.201738
1.8370,300.151890,300.206752
1.8380,300.158188,300.225851
1.8390,300.164541,300.253486
1.8400,300.170935,300.253484
1.8410,300.177356,300.262631
1.8420,300.183788,300.276926
1.8430,300.190215,300.278349
1.8440,300.196622,300.297016
1.8450,300.202990,300.297772
1.8460,300.209303,300.305638
1.8470,300.215542,300.312751
1.8480,300.221691,300.315138
1.8490,300.227729,300.297154
1.8500,300.233640,300.319155
1.8510,300.239405,300.309639
1.8520,300.245006,300.310953
1.8530,300.250424,300.325158
1.8540,300.255643,300.303272
1.8550,300.260645,300.321952
1.8560,300.265412,300.338138
1.8570,300.269929,300.338513
1.8580,300.274179,300.344639
1.8590,300.278149,300.359113
1.8600,300.281824,300.362977
1.8610,300.285191,300.360670
1.8620,300.288237,300.385541
1.8630,300.290952,300.402449
1.8640,300.293325,300.369308
1.8650,300.295349,300.390199
1.8660,300.297015,300.393979
1.8670,300.298317,300.380490
1.8680,300.299251,300.385344
1.8690,300.299813,300.406402
1.8700,300.300000,300.363647
1.8710,300.299813,300.369510
1.8720,300.299251,300.368821
1.8730,300.298317,300.353946
1.8740,300.297015,300.362589
1.8750,300.295349,300.353055
1.8760,300.293325,300.353889
1.8770,300.290952,300.357794
1.8780,300.288237,300.363563
1.8790,300.285191,300.354030
1.8800,300.281824,300.354150
1.8810,300.278149,300.372833
1.8820,300.274179,300.344346
1.8830,300.269929,300.383599
1.8840,300.265412,300.362950
1.8850,300.260645,300.350604
1.8860,300.255643,300.337047
1.8870,300.250424,300.348782
1.8880,300.245006,300.311032
1.8890,300.239405,300.315614
1.8900,300.233640,300.310820
1.8910,300.227729,300.290436
1.8920,300.221691,300.270786
1.8930,300.215542,300.281502
1.8940,300.209303,300.254510
1.8950,300.202990,300.252556
1.8960,300.196622,300.273917
1.8970,300.190215,300.250241
1.8980,300.183788,300.229119
1.8990,300.177356,300.240397
1.9000,300.170935,300.263347
1.9010,300.164541,300.252823
1.9020,300.158188,300.234717
1.9030,300.151890,300.264632
1.9040,300.145661,300.242199
1.9050,300.139513,300.233481
1.9060,300.133457,300.218326
1.9070,300.127505,300.215097
1.9080,300.121666,300.203477
1.9090,300.115950,300.211519
1.9100,300.110364,300.197107
1.9110,300.104916,300.175823
1.9120,300.099612,300.163097
1.9130,300.094458,300.146264
1.9140,300.089459,300.136334
1.9150,300.084619,300.125022
1.9160,300.079940,300.154178
1.9170,300.075426,300.134800
1.9180,300.071078,300.118449
1.9190,300.066897,300.122954
1.9200,300.062883,300.128903
1.9210,300.059037,300.149355
1.9220,300.055356,300.140892
1.9230,300.051840,300.145489
1.9240,300.048486,300.139957
1.9250,300.045293,300.157325
1.9260,300.042258,300.137272
1.9270,300.039376,300.148517
1.9280,300.036645,300.120487
1.9290,300.034061,300.124309
1.9300,300.031620,300.096399
1.9310,300.029317,300.094806
1.9320,300.027147,300.080358
1.9330,300.025107,300.092965
1.9340,300.023191,300.084333
1.9350,300.021395,300.080370
1.9360,300.019713,300.075058
1.9370,300.018141,300.076333
1.9380,300.016673,300.064849
1.9390,300.015305,300.075857
1.9400,300.014031,300.079884
1.9410,300.012848,300.081670
1.9420,300.011749,300.088121
1.9430,300.010731,300.094120
1.9440,300.009789,300.105021
1.9450,300.008919,300.087951
1.9460,300.008116,300.093177
1.9470,300.007375,300.092480
1.9480,300.006694,300.080671
1.9490,300.006069,300.083015
1.9500,300.000000,300.077803
1.9510,300.000000,300.074531
1.9520,300.000000,300.059340
1.9530,300.000000,300.048973
1.9540,300.000000,300.052585
1.9550,300.000000,300.052359
1.9560,300.000000,300.041204
1.9570,300.000000,300.059359
1.9580,300.000000,300.051787
1.9590,300.000000,300.049566
1.9600,300.000000,300.046518
1.9610,300.000000,300.075628
1.9620,300.000000,300.080673
1.9630,300.000000,300.066532
1.9640,300.000000,300.089544
1.9650,300.000000,300.084235
1.9660,300.000000,300.092532
1.9670,300.000000,300.081906
1.9680,300.000000,300.065756
1.9690,300.000000,300.084239
1.9700,300.000000,300.058804
1.9710,300.000000,300.069412
1.9720,300.000000,300.049423
1.9730,300.000000,300.052345
1.9740,300.000000,300.054893
1.9750,300.000000,300.054430
1.9760,300.000000,300.051504
1.9770,300.000000,300.062382
1.9780,300.000000,300.052858
1.9790,300.000000,300.073878
1.9800,300.000000,300.056809
1.9810,300.000000,300.080907
1.9820,300.000000,300.071624
1.9830,300.000000,300.084250
1.9840,300.000000,300.090887
1.9850,300.000000,300.079222
1.9860,300.000000,300.109686
1.9870,300.000000,300.071567
1.9880,300.000000,300.093556
1.9890,300.000000,300.077921
1.9900,300.000000,300.055382
1.9910,300.000000,300.043103
1.9920,300.000000,300.047770
1.9930,300.000000,300.057504
1.9940,300.000000,300.047536
1.9950,300.000000,300.038986
1.9960,300.000000,300.044558
1.9970,300.000000,300.042257
1.9980,300.000000,300.047604
1.9990,300.000000,300.046460
2.0000,300.000000,300.070520
2.0010,300.000000,300.070096
2.0020,300.000000,300.081561
2.0030,300.000000,300.095884
2.0040,300.000000,300.083822
2.0050,300.000000,300.076032
2.0060,300.000000,300.078576
2.0070,300.000000,300.081848
2.0080,300.000000,300.075536
2.0090,300.000000,300.074594
2.0100,300.000000,300.058257
2.0110,300.000000,300.060319
2.0120,300.000000,300.055214
2.0130,300.000000,300.054192
2.0140,300.000000,300.046501
2.0150,300.000000,300.034258
2.0160,300.000000,300.041636
2.0170,300.000000,300.061820
2.0180,300.000000,300.043298
2.0190,300.000000,300.061770
2.0200,300.000000,300.058155
2.0210,300.000000,300.067530
2.0220,300.000000,300.053070
2.0230,300.000000,300.067887
2.0240,300.000000,300.076535
2.0250,300.000000,300.098712
2.0260,300.000000,300.075382
2.0270,300.000000,300.051588
2.0280,300.000000,300.088735
2.0290,300.000000,300.076621
2.0300,300.000000,300.058320
2.0310,300.000000,300.059235
2.0320,300.000000,300.041468
2.0330,300.000000,300.039707
2.0340,300.000000,300.045696
2.0350,300.000000,300.047899
2.0360,300.000000,300.040169
2.0370,300.000000,300.059970
2.0380,300.000000,300.040136
2.0390,300.000000,300.063722
2.0400,300.000000,300.051921
2.0410,300.000000,300.066196
2.0420,300.000000,300.083541
2.0430,300.000000,300.071606
2.0440,300.000000,300.073229
2.0450,300.000000,300.077899
2.0460,300.000000,300.074409
2.0470,300.000000,300.064655
2.0480,300.000000,300.071332
2.0490,300.000000,300.070895
2.0500,300.000000,300.051878
2.0510,300.000000,300.056528
2.0520,300.000000,300.050230
2.0530,300.000000,300.050776
2.0540,300.000000,300.043300
2.0550,300.000000,300.050804
2.0560,300.000000,300.038050
2.0570,300.000000,300.038291
2.0580,300.000000,300.037516
2.0590,300.000000,300.065706
2.0600,300.000000,300.068311
2.0610,300.000000,300.070816
2.0620,300.000000,300.059963
2.0630,300.000000,300.070638
2.0640,300.000000,300.087168
2.0650,300.000000,300.074989
2.0660,300.000000,300.082797
2.0670,300.000000,300.085778
2.0680,300.000000,300.071336
2.0690,300.000000,300.072503
2.0700,300.000000,300.060113
2.0710,300.000000,300.078585
2.0720,300.000000,300.045111
2.0730,300.000000,300.045367
2.0740,300.000000,300.044607
2.0750,300.000000,300.020624
2.0760,300.000000,300.047170
2.0770,300.000000,300.043109
2.0780,300.000000,300.043508
2.0790,300.000000,300.043297
2.0800,300.000000,300.053980
2.0810,300.000000,300.070253
2.0820,300.000000,300.050980
2.0830,300.000000,300.060550
2.0840,300.000000,300.087473
2.0850,300.000000,300.082378
2.0860,300.000000,300.084455
2.0870,300.000000,300.079799
2.0880,300.000000,300.065753
2.0890,300.000000,300.075097
2.0900,300.000000,300.068480
2.0910,300.000000,300.041374
2.0920,300.000000,300.053196
2.0930,300.000000,300.028956
2.0940,300.000000,300.047779
2.0950,300.000000,300.027357
2.0960,300.000000,300.026550
2.0970,300.000000,300.045736
2.0980,300.000000,300.037080
2.0990,300.000000,300.067725
2.1000,300.000000,300.058523
2.1010,300.000000,300.051810
2.1020,300.000000,300.055000
2.1030,300.000000,300.065698
2.1040,300.000000,300.063247
2.1050,300.000000,300.064777
2.1060,300.000000,300.073212
2.1070,300.000000,300.066327
2.1080,300.000000,300.059351
2.1090,300.000000,300.073269
2.1100,300.000000,300.046970
2.1110,300.000000,300.051465
2.1120,300.000000,300.020472
2.1130,300.000000,300.036613
2.1140,300.000000,300.031755
2.1150,300.000000,300.041459
2.1160,300.000000,300.042809
2.1170,300.000000,300.051801
2.1180,300.000000,300.036998
2.1190,300.000000,300.028970
2.1200,300.000000,300.043032
2.1210,300.000000,300.054018
2.1220,300.000000,300.057127
2.1230,300.000000,300.087927
2.1240,300.000000,300.072445
2.1250,300.000000,300.072473
2.1260,300.000000,300.071492
2.1270,300.000000,300.065877
2.1280,300.000000,300.048865
2.1290,300.000000,300.071946
2.1300,300.000000,300.072104
2.1310,300.000000,300.035899
2.1320,300.000000,300.043539
2.1330,300.000000,300.032598
2.1340,300.000000,300.049023
2.1350,300.000000,300.043027
2.1360,300.000000,300.028035
2.1370,300.000000,300.047446
2.1380,300.000000,300.045919
2.1390,300.000000,300.039305
2.1400,300.000000,300.041305
2.1410,300.000000,300.069746
2.1420,300.000000,300.057281
2.1430,300.000000,300.069536
2.1440,300.000000,300.081394
2.1450,300.000000,300.072531
2.1460,300.000000,300.063829
2.1470,300.000000,300.077901
2.1480,300.000000,300.070951
2.1490,300.000000,300.075923
2.1500,300.000000,300.059091
2.1510,300.000000,300.041722
2.1520,300.000000,300.043432
2.1530,300.000000,300.044296
2.1540,300.000000,300.035500
2.1550,300.000000,300.024611
2.1560,300.000000,300.024914
2.1570,300.000000,300.043038
2.1580,300.000000,300.048011
2.1590,300.000000,300.051104
2.1600,300.000000,300.051601
2.1610,300.000000,300.056634
2.1620,300.000000,300.057026
2.1630,300.000000,300.075175
2.1640,300.000000,300.063792
2.1650,300.000000,300.068186
2.1660,300.000000,300.064521
2.1670,300.000000,300.067580
2.1680,300.000000,300.055862
2.1690,300.000000,300.061615
2.1700,300.000000,300.062013
2.1710,300.000000,300.053060
2.1720,300.000000,300.032590
2.1730,300.000000,300.044296
2.1740,300.000000,300.016831
2.1750,300.000000,300.021364
2.1760,300.000000,300.035667
2.1770,300.000000,300.027500
2.1780,300.000000,300.030020
2.1790,300.000000,300.037073
2.1800,300.000000,300.046994
2.1810,300.000000,300.045206
2.1820,300.000000,300.056922
2.1830,300.000000,300.072881
2.1840,300.000000,300.062229
2.1850,300.000000,300.086142
2.1860,300.000000,300.056686
2.1870,300.000000,300.053060
2.1880,300.000000,300.059660
2.1890,300.000000,300.054604
2.1900,300.000000,300.052879
2.1910,300.000000,300.016234
2.1920,300.000000,300.042683
2.1930,300.000000,300.020343
2.1940,300.000000,300.019363
2.1950,300.000000,300.024524
2.1960,300.000000,300.034074
2.1970,300.000000,300.026297
2.1980,300.000000,300.019746
2.1990,300.000000,300.056743
2.2000,300.000000,300.055585
2.2010,300.000000,300.061410
2.2020,300.000000,300.044130
2.2030,300.000000,300.041478
2.2040,300.000000,300.051498
2.2050,300.000000,300.059120
2.2060,300.000000,300.081000
2.2070,300.000000,300.052648
2.2080,300.000000,300.056102
2.2090,300.000000,300.069588
2.2100,300.000000,300.044230
2.2110,300.000000,300.032911
2.2120,300.000000,300.035525
2.2130,300.000000,300.037759
2.2140,300.000000,300.011899
2.2150,300.000000,300.020270
2.2160,300.000000,300.035035
2.2170,300.000000,300.035135
2.2180,300.000000,300.046993
2.2190,300.000000,300.027523
2.2200,300.000000,300.046110
2.2210,300.000000,300.053678
2.2220,300.000000,300.082436
2.2230,300.000000,300.051814
2.2240,300.000000,300.065402
2.2250,300.000000,300.052103
2.2260,300.000000,300.068820
2.2270,300.000000,300.065006
2.2280,300.000000,300.056237
2.2290,300.000000,300.030573
2.2300,300.000000,300.037131
2.2310,300.000000,300.032977
2.2320,300.000000,300.031272
2.2330,300.000000,300.022943
2.2340,300.000000,300.030988
2.2350,300.000000,300.036128
2.2360,300.000000,300.032111
2.2370,300.000000,300.023342
2.2380,300.000000,300.034974
2.2390,300.000000,300.017056
2.2400,300.000000,300.039315
2.2410,300.000000,300.040356
2.2420,300.000000,300.047542
2.2430,300.000000,300.059994
2.2440,300.000000,300.060073
2.2450,300.000000,300.054307
2.2460,300.000000,300.041236
2.2470,300.000000,300.051368
2.2480,300.000000,300.068330
2.2490,300.000000,300.048766
2.2500,300.000000,300.039555
2.2510,300.000000,300.030309
2.2520,300.000000,300.034403
2.2530,300.000000,300.029890
2.2540,300.000000,300.022716
2.2550,300.000000,300.017323
2.2560,300.000000,300.018067
2.2570,300.000000,300.019916
2.2580,300.000000,300.022078
2.2590,300.000000,300.036940
2.2600,300.000000,300.048837
2.2610,300.000000,300.056279
2.2620,300.000000,300.059928
2.2630,300.000000,300.057497
2.2640,300.000000,300.071958
2.2650,300.000000,300.051290
2.2660,300.000000,300.072118
2.2670,300.000000,300.056074
2.2680,300.000000,300.042584
2.2690,300.000000,300.043342
2.2700,300.000000,300.036050
2.2710,300.000000,300.035090
2.2720,300.000000,300.022986
2.2730,300.000000,300.015780
2.2740,300.000000,300.036024
2.2750,300.000000,300.023036
2.2760,300.000000,300.019370
2.2770,300.000000,300.018176
2.2780,300.000000,300.015381
2.2790,300.000000,300.015610
2.2800,300.000000,300.028283
2.2810,300.000000,300.040908
2.2820,300.000000,300.044926
2.2830,300.000000,300.061036
2.2840,300.000000,300.032474
2.2850,300.000000,300.058457
2.2860,300.000000,300.072474
2.2870,300.000000,300.044252
2.2880,300.000000,300.045733
2.2890,300.000000,300.042477
2.2900,300.000000,300.041430
2.2910,300.000000,300.022852
2.2920,300.000000,300.023261
2.2930,300.000000,300.003933
2.2940,300.000000,300.030289
2.2950,300.000000,300.011900
2.2960,300.000000,300.025354
2.2970,300.000000,300.030317
2.2980,300.000000,300.017968
2.2990,300.000000,300.027530
2.3000,300.000000,300.049895
2.3010,300.000000,300.033080
2.3020,300.000000,300.037651
2.3030,300.000000,300.040607
2.3040,300.000000,300.038152
2.3050,300.000000,300.042412
2.3060,300.000000,300.065743
2.3070,300.000000,300.049363
2.3080,300.000000,300.037433
2.3090,300.000000,300.047952
2.3100,300.000000,300.037833
2.3110,300.000000,300.016561
2.3120,300.000000,300.013266
2.3130,300.000000,300.024675
2.3140,300.000000,300.012749
2.3150,300.000000,300.030847
2.3160,300.000000,300.002952
2.3170,300.000000,300.024365
2.3180,300.000000,300.018070
2.3190,300.000000,300.010676
2.3200,300.000000,300.038679
2.3210,300.000000,300.064097
2.3220,300.000000,300.053244
2.3230,300.000000,300.039262
2.3240,300.000000,300.065553
2.3250,300.000000,300.048951
2.3260,300.000000,300.059440
2.3270,300.000000,300.030374
2.3280,300.000000,300.040315
2.3290,300.000000,300.025566
2.3300,300.000000,300.051318
2.3310,300.000000,300.025485
2.3320,300.000000,300.032131
2.3330,300.000000,300.029637
2.3340,300.000000,300.017444
2.3350,300.000000,300.027997
2.3360,300.000000,300.028292
2.3370,300.000000,300.008299
2.3380,300.000000,300.036417
2.3390,300.000000,300.023726
2.3400,300.000000,300.019676
2.3410,300.000000,300.028648
2.3420,300.000000,300.040969
2.3430,300.000000,300.032827
2.3440,300.000000,300.039344
2.3450,300.000000,300.048348
2.3460,300.000000,300.057343
2.3470,300.000000,300.040172
2.3480,300.000000,300.051720
2.3490,300.000000,300.028773
2.3500,300.000000,300.031834
2.3510,300.000000,300.045830
2.3520,300.000000,300.024666
2.3530,300.000000,300.021242
2.3540,300.000000,299.989800
2.3550,300.000000,300.027275
2.3560,300.000000,300.025036
2.3570,300.000000,300.028294
2.3580,300.000000,300.016937
2.3590,300.000000,300.010458
2.3600,300.000000,300.040249
2.3610,300.000000,300.030644
2.3620,300.000000,300.041458
2.3630,300.000000,300.036611
2.3640,300.000000,300.053963
2.3650,300.000000,300.037237
2.3660,300.000000,300.050917
2.3670,300.000000,300.052752
2.3680,300.000000,300.045925
2.3690,300.000000,300.026059
2.3700,300.000000,300.026978
2.3710,300.000000,300.036648
2.3720,300.000000,300.009619
2.3730,300.000000,300.033062
2.3740,300.000000,300.007171
2.3750,300.000000,300.018677
2.3760,300.000000,300.006447
2.3770,300.000000,300.008158
2.3780,300.000000,300.013914
2.3790,300.000000,300.041098
2.3800,300.000000,300.047520
2.3810,300.000000,300.041075
2.3820,300.000000,300.035573
2.3830,300.000000,300.035036
2.3840,300.000000,300.059847
2.3850,300.000000,300.050949
2.3860,300.000000,300.052601
2.3870,300.000000,300.064305
2.3880,300.000000,300.053757
2.3890,300.000000,300.048488
2.3900,300.000000,300.028616
2.3910,300.000000,300.009818
2.3920,300.000000,300.003792
2.3930,300.000000,300.013915
2.3940,300.000000,300.017519
2.3950,300.000000,299.998615
2.3960,300.000000,300.013796
2.3970,300.000000,300.017531
2.3980,300.000000,300.028876
2.3990,300.000000,300.023713
2.4000,300.000000,300.033662
2.4010,300.000000,300.024657
2.4020,300.000000,300.046800
2.4030,300.000000,300.043526
2.4040,300.000000,300.049996
2.4050,300.000000,300.053971
2.4060,300.000000,300.031512
2.4070,300.000000,300.041133
2.4080,300.000000,300.032584
2.4090,300.000000,300.040955
2.4100,300.000000,300.010878
2.4110,300.000000,300.024006
2.4120,300.000000,300.017736
2.4130,300.000000,300.023567
2.4140,300.000000,300.012714
2.4150,300.001832,300.010039
2.4160,300.002231,300.002114
2.4170,300.002705,300.007206
2.4180,300.003263,300.016782
2.4190,300.003916,300.033707
2.4200,300.004677,300.019174
2.4210,300.005558,300.031922
2.4220,300.006571,300.071522
2.4230,300.007730,300.057263
2.4240,300.009049,300.048223
2.4250,300.010540,300.063566
2.4260,300.012215,300.075269
2.4270,300.014086,300.069768
2.4280,300.016162,300.048529
2.4290,300.018452,300.046697
2.4300,300.020961,300.051841
2.4310,300.023693,300.053737
2.4320,300.026647,300.033467
2.4330,300.029820,300.042066
2.4340,300.033204,300.032261
2.4350,300.036788,300.045295
2.4360,300.040555,300.044500
2.4370,300.044486,300.051391
2.4380,300.048554,300.072072
2.4390,300.052729,300.084263
2.4400,300.056978,300.088122
2.4410,300.061263,300.073988
2.4420,300.065541,300.099018
2.4430,300.069768,300.090616
2.4440,300.073897,300.115626
2.4450,300.077880,300.097375
2.4460,300.081669,300.112295
2.4470,300.085214,300.123725
2.4480,300.088471,300.124828
2.4490,300.091393,300.128368
2.4500,300.093941,300.113341
2.4510,300.096079,300.126951
2.4520,300.097775,300.103013
2.4530,300.099005,300.116746
2.4540,300.099750,300.109496
2.4550,300.100000,300.097146
2.4560,300.099750,300.107291
2.4570,300.099005,300.119151
2.4580,300.097775,300.119366
2.4590,300.096079,300.121960
2.4600,300.093941,300.112410
2.4610,300.091393,300.115209
2.4620,300.088471,300.117840
2.4630,300.085214,300.117878
2.4640,300.081669,300.122013
2.4650,300.077880,300.107091
2.4660,300.073897,300.095016
2.4670,300.069768,300.108564
2.4680,300.065541,300.114535
2.4690,300.061263,300.091991
2.4700,300.056978,300.085470
2.4710,300.052729,300.070810
2.4720,300.048554,300.063306
2.4730,300.044486,300.047784
2.4740,300.040555,300.036450
2.4750,300.036788,300.049065
2.4760,300.033204,300.037471
2.4770,300.029820,300.035820
2.4780,300.026647,300.050231
2.4790,300.023693,300.038000
2.4800,300.020961,300.045026
2.4810,300.018452,300.035030
2.4820,300.016162,300.052017
2.4830,300.014086,300.056561
2.4840,300.012215,300.054800
2.4850,300.010540,300.057000
2.4860,300.009049,300.038172
2.4870,300.007730,300.044901
2.4880,300.006571,300.032108
2.4890,300.005558,300.046729
2.4900,300.004677,300.015226
2.4910,300.003916,300.014898
2.4920,300.003263,300.011674
2.4930,300.002705,300.012951
2.4940,300.002231,299.994355
2.4950,300.000000,300.005926
2.4960,300.000000,300.002053
2.4970,300.000000,299.988251
2.4980,300.000000,300.002511
2.4990,300.000000,300.009513
2.5000,300.000000,300.020068
2.5010,300.000000,300.019003
2.5020,300.000000,300.048010
2.5030,300.000000,300.029987
2.5040,300.000000,300.055879
2.5050,300.000000,300.051854
2.5060,300.000000,300.038321
2.5070,300.000000,300.027871
2.5080,300.000000,300.034913
2.5090,300.000000,300.032829
2.5100,300.000000,300.025342
2.5110,300.000000,300.008115
2.5120,300.000000,300.010229
2.5130,300.000000,300.027632
2.5140,300.000000,300.005601
2.5150,300.000000,299.999828
2.5160,299.979209,299.980085
2.5170,299.959326,299.951829
2.5180,299.941221,299.945147
2.5190,299.925686,299.948181
2.5200,299.913397,299.916052
2.5210,299.904894,299.929551
2.5220,299.900548,299.907536
2.5230,299.918863,299.962948
2.5240,299.939591,299.985688
2.5250,299.975574,300.018390
2.5260,300.031085,300.078847
2.5270,300.110235,300.137603
2.5280,300.215702,300.240992
2.5290,300.347088,300.376515
2.5300,300.499352,300.528674
2.5310,300.641180,300.640169
2.5320,300.778801,300.780307
2.5330,300.894839,300.899137
2.5340,300.972604,300.957808
2.5350,301.000000,300.988197
2.5360,300.972604,300.955066
2.5370,300.894839,300.897645
2.5380,300.778801,300.787738
2.5390,300.641180,300.658439
2.5400,300.499352,300.520809
2.5410,300.367879,300.395983
2.5420,300.256376,300.280605
2.5430,300.169013,300.202388
2.5440,300.105399,300.139907
2.5450,300.062177,300.095501
2.5460,300.034697,300.088500
2.5470,300.000000,300.038357
2.5480,300.000000,300.028613
2.5490,300.000000,300.010577
2.5500,300.000000,300.006950
2.5510,300.000000,299.999989
2.5520,300.000000,300.001865
2.5530,300.000000,300.011843
2.5540,300.000000,299.989221
2.5550,299.850000,299.844891
2.5560,299.870894,299.882858
2.5570,299.888877,299.898378
2.5580,299.904356,299.911389
2.5590,299.917678,299.931817
2.5600,299.929145,299.932514
2.5610,299.939015,299.958242
2.5620,299.947509,299.967675
2.5630,299.954821,299.984611
2.5640,299.961114,299.994333
2.5650,299.966530,299.996800
2.5660,299.971193,299.995324
2.5670,299.975205,299.996672
2.5680,299.978659,299.999398
2.5690,299.981632,299.991376
2.5700,299.984190,300.018493
2.5710,299.986392,299.971889
2.5720,299.988288,300.015096
2.5730,299.989919,300.002758
2.5740,299.991323,299.991850
2.5750,300.000000,299.999984
2.5760,300.000000,300.012084
2.5770,300.000000,300.003293
2.5780,300.000000,300.002624
2.5790,300.000000,300.010349
2.5800,300.000000,300.023285
2.5810,300.000000,300.046227
2.5820,300.000000,300.035802
2.5830,300.000000,300.026337
2.5840,300.000000,300.024492
2.5850,300.000000,300.044604
2.5860,300.000000,300.028335
2.5870,300.000000,300.036860
2.5880,300.000000,300.021738
2.5890,300.000000,300.031436
2.5900,300.000000,300.017763
2.5910,300.000000,300.008791
2.5920,300.000000,299.992987
2.5930,300.000000,300.019779
2.5940,300.000000,299.988206
2.5950,300.000000,299.998168
2.5960,300.000000,299.996404
2.5970,300.000000,299.996860
2.5980,300.000000,300.007633
2.5990,300.000000,300.005560
2.6000,300.000000,300.027917
2.6010,300.000000,300.023454
2.6020,300.000000,300.015269
2.6030,300.000000,300.026229
2.6040,300.000000,300.024701
2.6050,300.000000,300.038069
2.6060,300.000000,300.039993
2.6070,300.000000,300.023144
2.6080,300.000000,300.031774
2.6090,300.000000,300.027468
2.6100,300.000000,300.017772
2.6110,300.000000,300.022231
2.6120,300.000000,300.004601
2.6130,300.000000,300.011305
2.6140,300.000000,299.995609
2.6150,300.005495,300.006110
2.6160,300.006069,300.014913
2.6170,300.006694,299.984443
2.6180,300.007375,299.992664
2.6190,300.008116,300.032694
2.6200,300.008919,300.012352
2.6210,300.009789,300.034714
2.6220,300.010731,300.045735
2.6230,300.011749,300.031763
2.6240,300.012848,300.043724
2.6250,300.014031,300.050364
2.6260,300.015305,300.045317
2.6270,300.016673,300.043183
2.6280,300.018141,300.060909
2.6290,300.019713,300.038618
2.6300,300.021395,300.035269
2.6310,300.023191,300.031145
2.6320,300.025107,300.054906
2.6330,300.027147,300.006694
2.6340,300.029317,300.013891
2.6350,300.031620,300.023121
2.6360,300.034061,300.016078
2.6370,300.036645,300.030068
2.6380,300.039376,300.044361
2.6390,300.042258,300.047278
2.6400,300.045293,300.045460
2.6410,300.048486,300.062692
2.6420,300.051840,300.062036
2.6430,300.055356,300.078724
2.6440,300.059037,300.113474
2.6450,300.062883,300.102111
2.6460,300.066897,300.097773
2.6470,300.071078,300.086374
2.6480,300.075426,300.076678
2.6490,300.079940,300.090966
2.6500,300.084619,300.089997
2.6510,300.089459,300.098704
2.6520,300.094458,300.095011
2.6530,300.099612,300.097007
2.6540,300.104916,300.099262
2.6550,300.110364,300.090057
2.6560,300.115950,300.097054
2.6570,300.121666,300.126164
2.6580,300.127505,300.128046
2.6590,300.133457,300.141890
2.6600,300.139513,300.139035
2.6610,300.145661,300.142659
2.6620,300.151890,300.173884
2.6630,300.158188,300.171672
2.6640,300.164541,300.208774
2.6650,300.170935,300.207621
2.6660,300.177356,300.194571
2.6670,300.183788,300.232036
2.6680,300.190215,300.211376
2.6690,300.196622,300.214383
2.6700,300.202990,300.216769
2.6710,300.209303,300.213865
2.6720,300.215542,300.223552
2.6730,300.221691,300.228000
2.6740,300.227729,300.210030
2.6750,300.233640,300.216613
2.6760,300.239405,300.225750
2.6770,300.245006,300.227600
2.6780,300.250424,300.250937
2.6790,300.255643,300.257235
2.6800,300.260645,300.274936
2.6810,300.265412,300.278009
2.6820,300.269929,300.293954
2.6830,300.274179,300.304967
2.6840,300.278149,300.299035
2.6850,300.281824,300.318648
2.6860,300.285191,300.317596
2.6870,300.288237,300.313476
2.6880,300.290952,300.299236
2.6890,300.293325,300.311186
2.6900,300.295349,300.300860
2.6910,300.297015,300.290934
2.6920,300.298317,300.299568
2.6930,300.299251,300.291510
2.6940,300.299813,300.288088
2.6950,300.300000,300.286975
2.6960,300.299813,300.279986
2.6970,300.299251,300.314463
2.6980,300.298317,300.295990
2.6990,300.297015,300.281626
2.7000,300.295349,300.325602
2.7010,300.293325,300.311117
2.7020,300.290952,300.311678
2.7030,300.288237,300.311821
2.7040,300.285191,300.303987
2.7050,300.281824,300.312069
2.7060,300.278149,300.294768
2.7070,300.274179,300.304365
2.7080,300.269929,300.307016
2.7090,300.265412,300.276676
2.7100,300.260645,300.259896
2.7110,300.255643,300.267165
2.7120,300.250424,300.233689
2.7130,300.245006,300.236892
2.7140,300.239405,300.222684
2.7150,300.233640,300.232273
2.7160,300.227729,300.220589
2.7170,300.221691,300.221414
2.7180,300.215542,300.221045
2.7190,300.209303,300.216049
2.7200,300.202990,300.218482
2.7210,300.196622,300.220838
2.7220,300.190215,300.220476
2.7230,300.183788,300.205032
2.7240,300.177356,300.207781
2.7250,300.170935,300.203886
2.7260,300.164541,300.185681
2.7270,300.158188,300.184199
2.7280,300.151890,300.177153
2.7290,300.145661,300.169368
2.7300,300.139513,300.157118
2.7310,300.133457,300.132859
2.7320,300.127505,300.119494
2.7330,300.121666,300.081666
2.7340,300.115950,300.109266
2.7350,300.110364,300.087395
2.7360,300.104916,300.074930
2.7370,300.099612,300.096033
2.7380,300.094458,300.097687
2.7390,300.089459,300.097392
2.7400,300.084619,300.095226
2.7410,300.079940,300.091472
2.7420,300.075426,300.094271
2.7430,300.071078,300.100477
2.7440,300.066897,300.099153
2.7450,300.062883,300.088036
2.7460,300.059037,300.080881
2.7470,300.055356,300.078773
2.7480,300.051840,300.058804
2.7490,300.048486,300.050112
2.7500,300.045293,300.046899
2.7510,300.042258,300.039606
2.7520,300.039376,300.038742
2.7530,300.036645,300.002423
2.7540,300.034061,300.027943
2.7550,300.031620,300.024857
2.7560,300.029317,300.000591
2.7570,300.027147,300.014254
2.7580,300.025107,299.995560
2.7590,300.023191,300.030550
2.7600,300.021395,300.036285
2.7610,300.019713,300.031860
2.7620,300.018141,300.032903
2.7630,300.016673,300.054912
2.7640,300.015305,300.045222
2.7650,300.014031,300.080985
2.7660,300.012848,300.056936
2.7670,300.011749,300.034468
2.7680,300.010731,300.014752
2.7690,300.009789,300.029958
2.7700,300.008919,300.017815
2.7710,300.008116,300.005982
2.7720,300.007375,299.993748
2.7730,300.006694,299.988196
2.7740,300.006069,299.995532
2.7750,300.000000,299.983173
2.7760,300.000000,300.007376
2.7770,300.000000,300.007107
2.7780,300.000000,300.001317
2.7790,300.000000,300.015447
2.7800,300.000000,300.011342
2.7810,300.000000,300.005744
2.7820,300.000000,300.012889
2.7830,300.000000,300.023682
2.7840,300.000000,300.015528
2.7850,300.000000,300.042515
2.7860,300.000000,300.034217
2.7870,300.000000,300.015748
2.7880,300.000000,300.022974
2.7890,300.000000,300.001968
2.7900,300.000000,299.983958
2.7910,300.000000,299.989293
2.7920,300.000000,299.998533
2.7930,300.000000,299.991695
2.7940,300.000000,299.973957
2.7950,300.000000,299.983436
2.7960,300.000000,299.995786
2.7970,300.000000,300.001857
2.7980,300.000000,299.996956
2.7990,300.000000,300.004267
2.8000,300.000000,300.001422
2.8010,300.000000,300.014803
2.8020,300.000000,300.012804
2.8030,300.000000,300.022701
2.8040,300.000000,300.015981
2.8050,300.000000,300.035405
2.8060,300.000000,300.026213
2.8070,300.000000,300.008713
2.8080,300.000000,300.020916
2.8090,300.000000,299.994435
2.8100,300.000000,300.016561
2.8110,300.000000,299.985499
2.8120,300.000000,299.991412
2.8130,300.000000,299.980160
2.8140,300.000000,299.992439
2.8150,300.000000,299.998076
2.8160,300.000000,299.983288
2.8170,300.000000,300.001862
2.8180,300.000000,299.993086
2.8190,300.000000,300.000605
2.8200,300.000000,299.986381
2.8210,300.000000,300.001716
2.8220,300.000000,300.018515
2.8230,300.000000,300.033132
2.8240,300.000000,300.030549
2.8250,300.000000,300.035474
2.8260,300.000000,300.023938
2.8270,300.000000,300.014723
2.8280,300.000000,300.022913
2.8290,300.000000,300.015231
2.8300,300.000000,299.983161
2.8310,300.000000,300.004735
2.8320,300.000000,299.981454
2.8330,300.000000,299.992486
2.8340,300.000000,299.974002
2.8350,300.000000,299.975904
2.8360,300.000000,299.982567
2.8370,300.000000,299.986669
2.8380,300.000000,299.977528
2.8390,300.000000,300.002185
2.8400,300.000000,299.999981
2.8410,300.000000,300.006330
2.8420,300.000000,300.010922
2.8430,300.000000,300.022272
2.8440,300.000000,300.040260
2.8450,300.000000,300.009266
2.8460,300.000000,300.016421
2.8470,300.000000,300.036582
2.8480,300.000000,300.019300
2.8490,300.000000,300.000849
2.8500,300.000000,300.019778
2.8510,300.000000,299.992003
2.8520,300.000000,299.990930
2.8530,300.000000,299.992205
2.8540,300.000000,299.989120
2.8550,300.000000,299.969006
2.8560,300.000000,299.994819
2.8570,300.000000,300.003032
2.8580,300.000000,299.985415
2.8590,300.000000,299.978874
2.8600,300.000000,300.010955
2.8610,300.000000,300.019406
2.8620,300.000000,300.013895
2.8630,300.000000,300.030525
2.8640,300.000000,300.023635
2.8650,300.000000,300.035482
2.8660,300.000000,300.045704
2.8670,300.000000,300.010294
2.8680,300.000000,300.014274
2.8690,300.000000,300.015273
2.8700,300.000000,300.018638
2.8710,300.000000,299.984237
2.8720,300.000000,299.975995
2.8730,300.000000,299.983401
2.8740,300.000000,299.978291
2.8750,300.000000,299.990305
2.8760,300.000000,299.990154
2.8770,300.000000,299.984398
2.8780,300.000000,299.979115
2.8790,300.000000,299.980731
2.8800,300.000000,299.999723
2.8810,300.000000,300.012436
2.8820,300.000000,300.010346
2.8830,300.000000,300.014897
2.8840,300.000000,300.024737
2.8850,300.000000,300.022803
2.8860,300.000000,300.020547
2.8870,300.000000,300.038302
2.8880,300.000000,300.035884
2.8890,300.000000,300.025799
2.8900,300.000000,300.005504
2.8910,300.000000,299.991390
2.8920,300.000000,299.997822
2.8930,300.000000,299.989068
2.8940,300.000000,299.996243
2.8950,300.000000,299.997604
2.8960,300.000000,299.976809
2.8970,300.000000,299.991298
2.8980,300.000000,300.000011
2.8990,300.000000,299.979428
2.9000,300.000000,299.982407
2.9010,300.000000,300.021141
2.9020,300.000000,300.014797
2.9030,300.000000,300.032266
2.9040,300.000000,300.019999
2.9050,300.000000,300.020884
2.9060,300.000000,300.028668
2.9070,300.000000,300.037071
2.9080,300.000000,300.014261
2.9090,300.000000,300.016651
2.9100,300.000000,299.976866
2.9110,300.000000,299.993786
2.9120,300.000000,299.995814
2.9130,300.000000,299.954452
2.9140,300.000000,299.981017
2.9150,300.000000,300.003394
2.9160,300.000000,299.982487
2.9170,300.000000,299.982433
2.9180,300.000000,299.972907
2.9190,300.000000,300.000796
2.9200,300.000000,300.001296
2.9210,300.000000,299.998434
2.9220,300.000000,300.006084
2.9230,300.000000,300.015393
2.9240,300.000000,300.009424
2.9250,300.000000,300.019520
2.9260,300.000000,300.004627
2.9270,300.000000,300.033657
2.9280,300.000000,300.026621
2.9290,300.000000,299.996401
2.9300,300.000000,300.011600
2.9310,300.000000,299.989703
2.9320,300.000000,299.999078
2.9330,300.000000,299.986578
2.9340,300.000000,299.972371
2.9350,300.000000,299.999861
2.9360,300.000000,299.992174
2.9370,300.000000,299.988807
2.9380,300.000000,299.993163
2.9390,300.000000,299.980705
2.9400,300.000000,299.993941
2.9410,300.000000,300.003717
2.9420,300.000000,300.010905
2.9430,300.000000,300.023646
2.9440,300.000000,300.014582
2.9450,300.000000,300.017945
2.9460,300.000000,300.003997
2.9470,300.000000,300.014383
2.9480,300.000000,300.024268
2.9490,300.000000,299.992316
2.9500,300.000000,299.996637
2.9510,300.000000,300.001922
2.9520,300.000000,299.987173
2.9530,300.000000,299.973956
2.9540,300.000000,299.980094
2.9550,300.000000,299.991166
2.9560,300.000000,299.981990
2.9570,300.000000,299.987476
2.9580,300.000000,299.983429
2.9590,300.000000,299.985556
2.9600,300.000000,300.006458
2.9610,300.000000,300.012923
2.9620,300.000000,300.002901
2.9630,300.000000,300.028174
2.9640,300.000000,300.046347
2.9650,300.000000,300.023583
2.9660,300.000000,300.030505
2.9670,300.000000,300.011959
2.9680,300.000000,300.009450
2.9690,300.000000,300.005217
2.9700,300.000000,300.002363
2.9710,300.000000,300.003616
2.9720,300.000000,299.985528
2.9730,300.000000,299.975448
2.9740,300.000000,299.977781
2.9750,300.000000,299.984163
2.9760,300.000000,299.973613
2.9770,300.000000,299.983473
2.9780,300.000000,299.979420
2.9790,300.000000,300.003362
2.9800,300.000000,299.995927
2.9810,300.000000,299.992265
2.9820,300.000000,300.019804
2.9830,300.000000,300.017027
2.9840,300.000000,300.015385
2.9850,300.000000,300.007512
2.9860,300.000000,300.010198
2.9870,300.000000,300.012268
2.9880,300.000000,299.996804
2.9890,300.000000,300.005833
2.9900,300.000000,299.992692
2.9910,300.000000,299.996688
2.9920,300.000000,299.986762
2.9930,300.000000,299.985256
2.9940,300.000000,299.955163
2.9950,300.000000,299.977667
2.9960,300.000000,299.988433
2.9970,300.000000,299.986075
2.9980,300.000000,299.989987
2.9990,300.000000,300.002651
3.0000,300.000000,300.004300
3.0010,300.000000,300.007848
3.0020,300.000000,299.996278
3.0030,300.000000,300.027406
3.0040,300.000000,300.023958
3.0050,300.000000,300.006343
3.0060,300.000000,300.021309
3.0070,300.000000,300.028818
3.0080,300.000000,300.011627
3.0090,300.000000,300.005969
3.0100,300.000000,300.004505
3.0110,300.000000,299.992209
3.0120,300.000000,299.982249
3.0130,300.000000,299.985675
3.0140,300.000000,299.982837
3.0150,300.000000,299.983689
3.0160,300.000000,299.969721
3.0170,300.000000,299.982025
3.0180,300.000000,299.991371
3.0190,300.000000,299.998196
3.0200,300.000000,300.001705
3.0210,300.000000,300.003865
3.0220,300.000000,300.021333
3.0230,300.000000,300.002119
3.0240,300.000000,300.019520
3.0250,300.000000,300.018500
3.0260,300.000000,300.037155
3.0270,300.000000,300.025393
3.0280,300.000000,299.993607
3.0290,300.000000,300.000211
3.0300,300.000000,300.005021
3.0310,300.000000,299.995144
3.0320,300.000000,299.987078
3.0330,300.000000,299.991218
3.0340,300.000000,299.967734
3.0350,300.000000,299.980564
3.0360,300.000000,299.974109
3.0370,300.000000,299.982034
3.0380,300.000000,300.011331
3.0390,300.000000,300.002720
3.0400,300.000000,299.983775
3.0410,300.000000,300.015565
3.0420,300.000000,299.999679
3.0430,300.000000,300.013730
3.0440,300.000000,300.027481
3.0450,300.000000,300.032160
3.0460,300.000000,300.022402
3.0470,300.000000,299.999187
3.0480,300.000000,300.011828
3.0490,300.000000,299.997010
3.0500,300.000000,299.979724
3.0510,300.000000,299.985112
3.0520,300.000000,299.987562
3.0530,300.000000,299.995530
3.0540,300.000000,300.003689
3.0550,300.000000,299.985998
3.0560,300.000000,299.974433
3.0570,300.000000,299.971007
3.0580,300.000000,299.989113
3.0590,300.000000,299.991752
3.0600,300.000000,299.993398
3.0610,300.000000,299.999581
3.0620,300.000000,300.029439
3.0630,300.000000,300.015208
3.0640,300.000000,300.027182
3.0650,300.000000,300.023980
3.0660,300.000000,300.019341
3.0670,300.000000,300.023726
3.0680,300.000000,300.013718
3.0690,300.000000,300.008752
3.0700,300.000000,300.000100
3.0710,300.000000,299.983589
3.0720,300.000000,299.991367
3.0730,300.000000,299.991680
3.0740,300.000000,299.988585
3.0750,300.000000,299.989262
3.0760,300.000000,299.982823
3.0770,300.000000,299.987884
3.0780,300.000000,299.983986
3.0790,300.000000,299.992131
3.0800,300.000000,300.014899
3.0810,300.000000,299.998460
3.0820,300.000000,300.020294
3.0830,300.000000,300.002151
3.0840,300.000000,300.019308
3.0850,300.000000,300.040727
3.0860,300.000000,300.020151
3.0870,300.000000,300.007466
3.0880,300.000000,300.011984
3.0890,300.000000,300.015339
3.0900,300.000000,299.997191
3.0910,300.000000,299.981248
3.0920,300.000000,299.996325
3.0930,300.000000,299.983513
3.0940,300.000000,299.984250
3.0950,300.000000,299.977865
3.0960,300.000000,299.968126
3.0970,300.000000,299.990784
3.0980,300.000000,299.993077
3.0990,300.000000,299.992022
3.1000,300.000000,299.994656
3.1010,300.000000,300.003078
3.1020,300.000000,300.021828
3.1030,300.000000,300.027049
3.1040,300.000000,300.016183
3.1050,300.000000,300.009311
3.1060,300.000000,300.018264
3.1070,300.000000,300.026572
3.1080,300.000000,299.999455
3.1090,300.000000,300.013708
3.1100,300.000000,299.981023
3.1110,300.000000,300.001220
3.1120,300.000000,299.985255
3.1130,300.000000,299.977920
3.1140,300.000000,299.987432
3.1150,300.000000,299.973528
3.1160,300.000000,299.983848
3.1170,300.000000,299.993355
3.1180,300.000000,299.968715
3.1190,300.000000,300.000041
3.1200,300.000000,299.998484
3.1210,300.000000,300.011915
3.1220,300.000000,300.007504
3.1230,300.000000,300.023536
3.1240,300.000000,300.019582
3.1250,300.000000,300.017236
3.1260,300.000000,300.019141
3.1270,300.000000,300.004473
3.1280,300.000000,300.003291
3.1290,300.000000,300.012550
3.1300,300.000000,299.999497
3.1310,300.000000,299.998645
3.1320,300.000000,299.998530
3.1330,300.000000,299.982814
3.1340,300.000000,299.988957
3.1350,300.000000,299.982644
3.1360,300.000000,299.993047
3.1370,300.000000,299.977746
3.1380,300.000000,299.980722
3.1390,300.000000,299.994124
3.1400,300.000000,300.004055
3.1410,300.000000,300.011521
3.1420,300.000000,300.002045
3.1430,300.000000,300.017720
3.1440,300.000000,300.017237
3.1450,300.000000,300.018370
3.1460,300.000000,300.021608
3.1470,300.000000,300.026170
3.1480,300.000000,300.011143
3.1490,300.000000,300.008290
3.1500,300.000000,299.983395
3.1510,300.000000,299.979888
3.1520,300.000000,299.984770
3.1530,300.000000,299.989937
3.1540,300.000000,299.982493
3.1550,300.000000,299.987331
3.1560,300.000000,299.996931
3.1570,300.000000,299.969993
3.1580,300.000000,299.993150
3.1590,300.000000,300.004007
3.1600,300.000000,300.010015
3.1610,300.000000,300.020083
3.1620,300.000000,300.025840
3.1630,300.000000,299.984498
3.1640,300.000000,300.014096
3.1650,300.000000,300.036257
3.1660,300.000000,300.031609
3.1670,300.000000,299.996615
3.1680,300.000000,300.023647
3.1690,300.000000,300.009740
3.1700,300.000000,299.998378
3.1710,300.000000,300.000131
3.1720,300.000000,300.000392
3.1730,300.000000,299.973164
3.1740,300.000000,300.000172
3.1750,300.000000,299.980929
3.1760,300.000000,299.978311
3.1770,300.000000,299.976681
3.1780,300.000000,299.981845
3.1790,300.000000,299.984751
3.1800,300.000000,299.987302
3.1810,300.000000,299.994070
3.1820,300.000000,300.028783
3.1830,300.000000,300.029875
3.1840,300.000000,300.004717
3.1850,300.000000,300.026517
3.1860,300.000000,300.032044
3.1870,300.000000,300.012442
3.1880,300.000000,300.029890
3.1890,300.000000,300.014448
3.1900,300.000000,300.012158
3.1910,300.000000,300.004833
3.1920,300.000000,299.989479
3.1930,300.000000,299.978143
3.1940,300.000000,299.990712
3.1950,300.000000,299.964598
3.1960,300.000000,299.975290
3.1970,300.000000,299.991708
3.1980,300.000000,299.976767
3.1990,300.000000,299.974448
3.2000,300.000000,299.994190
3.2010,300.000000,300.012337
3.2020,300.000000,300.000897
3.2030,300.000000,300.020985
3.2040,300.000000,299.989657
3.2050,300.000000,300.028225
3.2060,300.000000,300.007389
3.2070,300.000000,300.006707
3.2080,300.000000,300.034450
3.2090,300.000000,300.008422
3.2100,300.000000,299.987643
3.2110,300.000000,300.001917
3.2120,300.000000,299.983180
3.2130,300.000000,299.982540
3.2140,300.000000,299.981092
3.2150,300.000000,299.989572
3.2160,300.000000,299.978920
3.2170,300.000000,299.973372
3.2180,300.000000,299.981966
3.2190,300.000000,299.991988
3.2200,300.000000,299.994768
3.2210,300.000000,300.003790
3.2220,300.000000,300.016873
3.2230,300.000000,300.012469
3.2240,300.000000,300.005849
3.2250,300.000000,300.027639
3.2260,300.001832,300.020576
3.2270,300.002231,300.025693
3.2280,300.002705,300.013288
3.2290,300.003263,300.005531
3.2300,300.003916,299.990775
3.2310,300.004677,300.003169
3.2320,300.005558,299.990580
3.2330,300.006571,299.974602
3.2340,300.007730,299.978088
3.2350,300.009049,299.997431
3.2360,300.010540,300.006765
3.2370,300.012215,299.990609
3.2380,300.014086,300.000430
3.2390,300.016162,300.015419
3.2400,300.018452,300.029852
3.2410,300.020961,300.027215
3.2420,300.023693,300.036172
3.2430,300.026647,300.043067
3.2440,300.029820,300.045991
3.2450,300.033204,300.041850
3.2460,300.036788,300.063092
3.2470,300.040555,300.041810
3.2480,300.044486,300.067667
3.2490,300.048554,300.057223
3.2500,300.052729,300.054747
3.2510,300.056978,300.051325
3.2520,300.061263,300.057380
3.2530,300.065541,300.054200
3.2540,300.069768,300.049354
3.2550,300.073897,300.039592
3.2560,300.077880,300.066270
3.2570,300.081669,300.072353
3.2580,300.085214,300.063316
3.2590,300.088471,300.066692
3.2600,300.091393,300.083704
3.2610,300.093941,300.094668
3.2620,300.096079,300.103664
3.2630,300.097775,300.092725
3.2640,300.099005,300.114966
3.2650,300.099750,300.103359
3.2660,300.100000,300.116930
3.2670,300.099750,300.114986
3.2680,300.099005,300.117148
3.2690,300.097775,300.090745
3.2700,300.096079,300.095615
3.2710,300.093941,300.078142
3.2720,300.091393,300.078231
3.2730,300.088471,300.071310
3.2740,300.085214,300.069777
3.2750,300.081669,300.068607
3.2760,300.077880,300.050836
3.2770,300.073897,300.067887
3.2780,300.069768,300.041833
3.2790,300.065541,300.057991
3.2800,300.061263,300.050485
3.2810,300.056978,300.072265
3.2820,300.052729,300.057431
3.2830,300.048554,300.068240
3.2840,300.044486,300.054073
3.2850,300.040555,300.070921
3.2860,300.036788,300.058295
3.2870,300.033204,300.025674
3.2880,300.029820,300.030209
3.2890,300.026647,300.016789
3.2900,300.023693,300.022545
3.2910,300.020961,300.012318
3.2920,300.018452,300.020733
3.2930,300.016162,300.000936
3.2940,300.014086,299.998188
3.2950,300.012215,299.992584
3.2960,300.010540,299.975172
3.2970,300.009049,299.996282
3.2980,300.007730,299.998372
3.2990,300.006571,300.008599
3.3000,300.005558,300.007425
3.3010,300.004677,300.022022
3.3020,300.003916,300.013852
3.3030,300.003263,300.019687
3.3040,300.002705,300.021086
3.3050,300.002231,300.037170
3.3060,300.000000,300.012154
3.3070,300.000000,300.020671
3.3080,300.000000,300.029585
3.3090,300.000000,300.008805
3.3100,300.000000,300.002896
3.3110,300.000000,300.012162
3.3120,300.000000,299.991210
3.3130,300.000000,300.019876
3.3140,300.000000,299.964219
3.3150,300.000000,299.981561
3.3160,300.000000,299.979578
3.3170,300.000000,299.994152
3.3180,300.000000,299.978038
3.3190,300.000000,299.979224
3.3200,300.000000,300.008275
3.3210,300.000000,300.005883
3.3220,300.000000,300.020019
3.3230,300.000000,300.013523
3.3240,300.000000,300.023145
3.3250,300.000000,300.023675
3.3260,300.000000,300.006820
3.3270,299.979209,299.970931
3.3280,299.959326,299.967199
3.3290,299.941221,299.958105
3.3300,299.925686,299.910734
3.3310,299.913397,299.900406
3.3320,299.904894,299.902536
3.3330,299.900548,299.888957
3.3340,299.918863,299.897670
3.3350,299.939591,299.915862
3.3360,299.975574,299.948855
3.3370,300.031085,300.016140
3.3380,300.110235,300.129076
3.3390,300.215702,300.202027
3.3400,300.347088,300.350118
3.3410,300.499352,300.504164
3.3420,300.641180,300.658949
3.3430,300.778801,300.808100
3.3440,300.894839,300.921968
3.3450,300.972604,301.004168
3.3460,301.000000,301.028196
3.3470,300.972604,300.995308
3.3480,300.894839,300.907298
3.3490,300.778801,300.796753
3.3500,300.641180,300.639842
3.3510,300.499352,300.500338
3.3520,300.367879,300.349802
3.3530,300.256376,300.248678
3.3540,300.169013,300.152829
3.3550,300.105399,300.072092
3.3560,300.062177,300.050041
3.3570,300.034697,300.020063
3.3580,300.000000,299.984737
3.3590,300.000000,299.996843
3.3600,300.000000,299.998151
3.3610,300.000000,300.008344
3.3620,300.000000,299.997413
3.3630,300.000000,300.017649
3.3640,300.000000,300.007817
3.3650,300.000000,300.007396
3.3660,299.850000,299.866184
3.3670,299.870894,299.877377
3.3680,299.888877,299.898626
3.3690,299.904356,299.905747
3.3700,299.917678,299.915429
3.3710,299.929145,299.927844
3.3720,299.939015,299.926470
3.3730,299.947509,299.920887
3.3740,299.954821,299.948388
3.3750,299.961114,299.938335
3.3760,299.966530,299.944832
3.3770,299.971193,299.945130
3.3780,299.975205,299.964926
3.3790,299.978659,299.971918
3.3800,299.981632,299.982957
3.3810,299.984190,299.990139
3.3820,299.986392,300.003681
3.3830,299.988288,299.998526
3.3840,299.989919,300.010636
3.3850,299.991323,300.025393
3.3860,300.000000,300.026737
3.3870,300.000000,300.029469
3.3880,300.000000,300.018790
3.3890,300.000000,300.017622
3.3900,300.000000,300.004395
3.3910,300.000000,299.999385
3.3920,300.000000,299.991819
3.3930,300.000000,299.990498
3.3940,300.000000,299.990085
3.3950,300.000000,299.989175
3.3960,300.000000,299.992296
3.3970,300.000000,299.972713
3.3980,300.000000,299.980118
3.3990,300.000000,299.996178
3.4000,300.000000,300.003033
3.4010,300.000000,299.990545
3.4020,300.000000,299.994652
3.4030,300.000000,300.016218
3.4040,300.000000,300.033901
3.4050,300.000000,300.007969
3.4060,300.000000,300.027631
3.4070,300.000000,300.032312
3.4080,300.000000,300.025851
3.4090,300.000000,300.013703
3.4100,300.000000,300.008095
3.4110,300.000000,299.982558
3.4120,300.000000,299.986457
3.4130,300.000000,299.983214
3.4140,300.000000,299.971274
3.4150,300.000000,299.974628
3.4160,300.000000,299.978266
3.4170,300.000000,299.992461
3.4180,300.000000,299.988764
3.4190,300.000000,299.984730
3.4200,300.000000,300.004121
3.4210,300.000000,299.999625
3.4220,300.000000,300.017957
3.4230,300.000000,300.022823
3.4240,300.000000,300.019213
3.4250,300.000000,300.027089
3.4260,300.005495,300.030067
3.4270,300.006069,300.022821
3.4280,300.006694,300.018412
3.4290,300.007375,300.020999
3.4300,300.008116,299.997816
3.4310,300.008919,300.005109
3.4320,300.009789,300.006764
3.4330,300.010731,299.998306
3.4340,300.011749,299.999856
3.4350,300.012848,299.990858
3.4360,300.014031,299.997649
3.4370,300.015305,299.985774
3.4380,300.016673,300.013159
3.4390,300.018141,300.014823
3.4400,300.019713,300.014665
3.4410,300.021395,300.021896
3.4420,300.023191,300.030970
3.4430,300.025107,300.031194
3.4440,300.027147,300.047571
3.4450,300.029317,300.066650
3.4460,300.031620,300.055428
3.4470,300.034061,300.052237
3.4480,300.036645,300.043339
3.4490,300.039376,300.034177
3.4500,300.042258,300.046678
3.4510,300.045293,300.049811
3.4520,300.048486,300.047622
3.4530,300.051840,300.013670
3.4540,300.055356,300.020200
3.4550,300.059037,300.027650
3.4560,300.062883,300.041221
3.4570,300.066897,300.046557
3.4580,300.071078,300.068504
3.4590,300.075426,300.072590
3.4600,300.079940,300.081791
3.4610,300.084619,300.077160
3.4620,300.089459,300.098248
3.4630,300.094458,300.102035
3.4640,300.099612,300.102213
3.4650,300.104916,300.130823
3.4660,300.110364,300.112893
3.4670,300.115950,300.134839
3.4680,300.121666,300.144152
3.4690,300.127505,300.130111
3.4700,300.133457,300.136155
3.4710,300.139513,300.123741
3.4720,300.145661,300.136512
3.4730,300.151890,300.142271
3.4740,300.158188,300.127222
3.4750,300.164541,300.149821
3.4760,300.170935,300.140534
3.4770,300.177356,300.169288
3.4780,300.183788,300.167118
3.4790,300.190215,300.173451
3.4800,300.196622,300.198733
3.4810,300.202990,300.212190
3.4820,300.209303,300.195479
3.4830,300.215542,300.234825
3.4840,300.221691,300.244808
3.4850,300.227729,300.241436
3.4860,300.233640,300.252176
3.4870,300.239405,300.255240
3.4880,300.245006,300.246240
3.4890,300.250424,300.242515
3.4900,300.255643,300.256007
3.4910,300.260645,300.250541
3.4920,300.265412,300.249489
3.4930,300.269929,300.254037
3.4940,300.274179,300.252921
3.4950,300.278149,300.250948
3.4960,300.281824,300.252322
3.4970,300.285191,300.265327
3.4980,300.288237,300.266875
3.4990,300.290952,300.283043
3.5000,300.293325,300.283644
3.5010,300.295349,300.305104
3.5020,300.297015,300.307979
3.5030,300.298317,300.315261
3.5040,300.299251,300.297695
3.5050,300.299813,300.329700
3.5060,300.300000,300.300905
3.5070,300.299813,300.307196
3.5080,300.299251,300.318477
3.5090,300.298317,300.299201
3.5100,300.297015,300.302278
3.5110,300.295349,300.294100
3.5120,300.293325,300.280016
3.5130,300.290952,300.273822
3.5140,300.288237,300.266320
3.5150,300.285191,300.255122
3.5160,300.281824,300.266153
3.5170,300.278149,300.261807
3.5180,300.274179,300.273098
3.5190,300.269929,300.267792
3.5200,300.265412,300.260135
3.5210,300.260645,300.268649
3.5220,300.255643,300.278921
3.5230,300.250424,300.263143
3.5240,300.245006,300.270170
3.5250,300.239405,300.250200
3.5260,300.233640,300.267813
3.5270,300.227729,300.251654
3.5280,300.221691,300.235780
3.5290,300.215542,300.220262
3.5300,300.209303,300.197827
3.5310,300.202990,300.200712
3.5320,300.196622,300.180455
3.5330,300.190215,300.171301
3.5340,300.183788,300.165488
3.5350,300.177356,300.159692
3.5360,300.170935,300.149284
3.5370,300.164541,300.148243
3.5380,300.158188,300.141226
3.5390,300.151890,300.136908
3.5400,300.145661,300.137221
3.5410,300.139513,300.146945
3.5420,300.133457,300.132016
3.5430,300.127505,300.156914
3.5440,300.121666,300.153342
3.5450,300.115950,300.134469
3.5460,300.110364,300.121811
3.5470,300.104916,300.110976
3.5480,300.099612,300.107614
3.5490,300.094458,300.098461
3.5500,300.089459,300.081096
3.5510,300.084619,300.085084
3.5520,300.079940,300.065322
3.5530,300.075426,300.064583
3.5540,300.071078,300.047170
3.5550,300.066897,300.043669
3.5560,300.062883,300.040576
3.5570,300.059037,300.045103
3.5580,300.055356,300.057898
3.5590,300.051840,300.047615
3.5600,300.048486,300.055057
3.5610,300.045293,300.071636
3.5620,300.042258,300.053899
3.5630,300.039376,300.041136
3.5640,300.036645,300.040220
3.5650,300.034061,300.056577
3.5660,300.031620,300.034832
3.5670,300.029317,300.041100
3.5680,300.027147,300.025404
3.5690,300.025107,300.027288
3.5700,300.023191,300.025474
3.5710,300.021395,300.013596
3.5720,300.019713,300.010952
3.5730,300.018141,300.013929
3.5740,300.016673,299.997255
3.5750,300.015305,300.000485
3.5760,300.014031,300.005613
3.5770,300.012848,300.003198
3.5780,300.011749,299.997735
3.5790,300.010731,300.023882
3.5800,300.009789,300.012112
3.5810,300.008919,300.007774
3.5820,300.008116,300.012077
3.5830,300.007375,300.027404
3.5840,300.006694,300.019950
3.5850,300.006069,300.022723
3.5860,300.000000,300.011253
3.5870,300.000000,300.018540
3.5880,300.000000,300.005098
3.5890,300.000000,300.010394
3.5900,300.000000,300.002411
3.5910,300.000000,300.007000
3.5920,300.000000,299.969796
3.5930,300.000000,299.980409
3.5940,300.000000,299.968896
3.5950,300.000000,299.975664
3.5960,300.000000,299.974316
3.5970,300.000000,299.991756
3.5980,300.000000,299.993816
3.5990,300.000000,299.994841
3.6000,300.000000,300.007337
3.6010,300.000000,300.013797
3.6020,300.000000,300.016782
3.6030,300.000000,300.019608
3.6040,300.000000,300.013014
3.6050,300.000000,300.022934
3.6060,300.000000,300.037511
3.6070,300.000000,300.024017
3.6080,300.000000,300.002560
3.6090,300.000000,299.990837
3.6100,300.000000,299.990970
3.6110,300.000000,299.978175
3.6120,300.000000,299.977158
3.6130,300.000000,299.982783
3.6140,300.000000,299.979170
3.6150,300.000000,299.990077
3.6160,300.000000,299.982971
3.6170,300.000000,299.985064
3.6180,300.000000,299.984504
3.6190,300.000000,300.009782
3.6200,300.000000,300.002520
3.6210,300.000000,300.013224
3.6220,300.000000,300.012763
3.6230,300.000000,300.031242
3.6240,300.000000,299.994114
3.6250,300.000000,300.017944
3.6260,300.000000,300.037363
3.6270,300.000000,299.999380
3.6280,300.000000,300.018383
3.6290,300.000000,300.000176
3.6300,300.000000,300.005018
3.6310,300.000000,299.998803
3.6320,300.000000,299.990694
3.6330,300.000000,299.988908
3.6340,300.000000,299.970573
3.6350,300.000000,299.977378
3.6360,300.000000,299.985172
3.6370,300.000000,299.998438
3.6380,300.000000,299.990619
3.6390,300.000000,300.001937
3.6400,300.000000,299.977388
3.6410,300.000000,300.000012
3.6420,300.000000,300.005834
3.6430,300.000000,300.008441
3.6440,300.000000,300.018499
3.6450,300.000000,300.029295
3.6460,300.000000,300.025459
3.6470,300.000000,300.023506
3.6480,300.000000,300.015107
3.6490,300.000000,300.000424
3.6500,300.000000,299.995210
3.6510,300.000000,299.981968
3.6520,300.000000,299.987658
3.6530,300.000000,299.973215
3.6540,300.000000,299.975319
3.6550,300.000000,299.972109
3.6560,300.000000,299.981934
3.6570,300.000000,300.000279
3.6580,300.000000,299.991001
3.6590,300.000000,299.981231
3.6600,300.000000,299.982172
3.6610,300.000000,299.995885
3.6620,300.000000,300.014091
3.6630,300.000000,300.012559
3.6640,300.000000,300.016399
3.6650,300.000000,300.001003
3.6660,300.000000,300.024832
3.6670,300.000000,300.018758
3.6680,300.000000,300.014038
3.6690,300.000000,300.001690
3.6700,300.000000,299.992407
3.6710,300.000000,299.997105
3.6720,300.000000,299.996702
3.6730,300.000000,299.988812
3.6740,300.000000,299.984973
3.6750,300.000000,299.985598
3.6760,300.000000,299.969932
3.6770,300.000000,299.975339
3.6780,300.000000,299.973259
3.6790,300.000000,299.983948
3.6800,300.000000,299.993932
3.6810,300.000000,300.002697
3.6820,300.000000,300.014031
3.6830,300.000000,300.019851
3.6840,300.000000,300.020811
3.6850,300.000000,300.016688
3.6860,300.000000,300.023506
3.6870,300.000000,300.007468
3.6880,300.000000,300.005280
3.6890,300.000000,300.011758
3.6900,300.000000,299.998973
3.6910,300.000000,299.987764
3.6920,300.000000,299.994827
3.6930,300.000000,299.985413
3.6940,300.000000,299.977523
3.6950,300.000000,299.980041
3.6960,300.000000,299.986135
3.6970,300.000000,299.986537
3.6980,300.000000,299.982380
3.6990,300.000000,299.970625
3.7000,300.000000,299.994246
3.7010,300.000000,300.004264
3.7020,300.000000,299.994611
3.7030,300.000000,300.008474
3.7040,300.000000,300.023438
3.7050,300.000000,300.013230
3.7060,300.000000,300.027473
3.7070,300.000000,300.037083
3.7080,300.000000,300.009466
3.7090,300.000000,300.002798
3.7100,300.000000,300.014957
3.7110,300.000000,300.002725
3.7120,300.000000,299.977900
3.7130,300.000000,299.976626
3.7140,300.000000,299.980591
3.7150,300.000000,299.969231
3.7160,300.000000,299.974497
3.7170,300.000000,299.986347
3.7180,300.000000,300.000672
3.7190,300.000000,299.992873
3.7200,300.000000,300.017217
3.7210,300.000000,300.001011
3.7220,300.000000,300.011474
3.7230,300.000000,300.011668
3.7240,300.000000,300.006271
3.7250,300.000000,300.018377
3.7260,300.000000,300.024862
3.7270,300.000000,300.017216
3.7280,300.000000,300.023605
3.7290,300.000000,300.009688
3.7300,300.000000,300.004682
3.7310,300.000000,299.996936
3.7320,300.000000,299.983892
3.7330,300.000000,299.974236
3.7340,300.000000,299.973271
3.7350,300.000000,299.987585
3.7360,300.000000,299.991126
3.7370,300.000000,299.982085
3.7380,300.000000,299.988422
3.7390,300.000000,299.969499
3.7400,300.000000,300.000440
3.7410,300.000000,300.003722
3.7420,300.000000,300.016702
3.7430,300.000000,300.029371
3.7440,300.000000,300.019272
3.7450,300.000000,300.011249
3.7460,300.000000,299.986103
3.7470,300.000000,300.022075
3.7480,300.000000,299.994388
3.7490,300.000000,300.010044
3.7500,300.000000,300.005791
3.7510,300.000000,299.984564
3.7520,300.000000,299.988068
3.7530,300.000000,299.978356
3.7540,300.000000,299.971403
3.7550,300.000000,299.969272
3.7560,300.000000,299.957819
3.7570,300.000000,299.983467
3.7580,300.000000,299.986656
3.7590,300.000000,299.989912
3.7600,300.000000,299.985428
3.7610,300.000000,300.008576
3.7620,300.000000,300.004800
3.7630,300.000000,300.009913
3.7640,300.000000,300.032809
3.7650,300.000000,300.016750
3.7660,300.000000,300.021329
3.7670,300.000000,300.014916
3.7680,300.000000,300.011241
3.7690,300.000000,300.013514
3.7700,300.000000,300.002430
3.7710,300.000000,299.996828
3.7720,300.000000,300.009974
3.7730,300.000000,299.984275
3.7740,300.000000,299.970624
3.7750,300.000000,299.981050
3.7760,300.000000,299.977222
3.7770,300.000000,299.980989
3.7780,300.000000,299.975752
3.7790,300.000000,299.999944
3.7800,300.000000,299.996637
3.7810,300.000000,299.992092
3.7820,300.000000,300.012225
3.7830,300.000000,300.026611
3.7840,300.000000,300.020089
3.7850,300.000000,300.016294
3.7860,300.000000,300.008259
3.7870,300.000000,300.013457
3.7880,300.000000,299.995041
3.7890,300.000000,300.024938
3.7900,300.000000,299.994492
3.7910,300.000000,299.996263
3.7920,300.000000,299.993838
3.7930,300.000000,299.988008
3.7940,300.000000,299.997858
3.7950,300.000000,299.966961
3.7960,300.000000,299.971791
3.7970,300.000000,300.004604
3.7980,300.000000,299.993264
3.7990,300.000000,299.985673
3.8000,300.000000,299.974475
3.8010,300.000000,299.999272
3.8020,300.000000,300.012325
3.8030,300.000000,300.010647
3.8040,300.000000,300.018427
3.8050,300.000000,300.009959
3.8060,300.000000,300.005277
3.8070,300.000000,300.013782
3.8080,300.000000,300.016201
3.8090,300.000000,300.008619
3.8100,300.000000,299.991371
3.8110,300.000000,300.003435
3.8120,300.000000,299.989237
3.8130,300.000000,299.966474
3.8140,300.000000,299.958456
3.8150,300.000000,299.970920
3.8160,300.000000,299.968433
3.8170,300.000000,299.966818
3.8180,300.000000,299.975362
3.8190,300.000000,299.987346
3.8200,300.000000,299.977094
3.8210,300.000000,299.994615
3.8220,300.000000,300.009789
3.8230,300.000000,300.011226
3.8240,300.000000,300.014113
3.8250,300.000000,300.019774
3.8260,300.000000,300.017125
3.8270,300.000000,300.011753
3.8280,300.000000,300.021554
3.8290,300.000000,300.004026
3.8300,300.000000,299.991060
3.8310,300.000000,299.988129
3.8320,300.000000,299.978487
3.8330,300.000000,299.984374
3.8340,300.000000,299.972168
3.8350,300.000000,299.980169
3.8360,300.000000,299.977596
3.8370,300.000000,299.983915
3.8380,300.000000,299.990373
3.8390,300.000000,299.974601
3.8400,300.000000,299.983222
3.8410,300.000000,300.004642
3.8420,300.000000,300.009309
3.8430,300.000000,300.008362
3.8440,300.000000,300.008121
3.8450,300.000000,300.028314
3.8460,300.000000,300.000632
3.8470,300.000000,300.008578
3.8480,300.000000,300.037686
3.8490,300.000000,300.002040
3.8500,300.000000,299.996281
3.8510,300.000000,299.991242
3.8520,300.000000,299.956887
3.8530,300.000000,299.980900
3.8540,300.000000,299.967555
3.8550,300.000000,299.968698
3.8560,300.000000,299.963042
3.8570,300.000000,299.965949
3.8580,300.000000,300.001887
3.8590,300.000000,299.999576
3.8600,300.000000,300.011396
3.8610,300.000000,300.002270
3.8620,300.000000,299.998985
3.8630,300.000000,299.989877
3.8640,300.000000,300.000567
3.8650,300.000000,300.024401
3.8660,300.000000,300.004692
3.8670,300.000000,300.003905
3.8680,300.000000,300.001928
3.8690,300.000000,300.002160
3.8700,300.000000,299.990981
3.8710,300.000000,299.979582
3.8720,300.000000,299.970098
3.8730,300.000000,299.976733
3.8740,300.000000,299.978638
3.8750,300.000000,299.965631
3.8760,300.000000,299.966690
3.8770,300.000000,299.988682
3.8780,300.000000,299.976811
3.8790,300.000000,299.989696
3.8800,300.000000,299.992548
3.8810,300.000000,299.986977
3.8820,300.000000,300.001360
3.8830,300.000000,300.008302
3.8840,300.000000,300.000175
3.8850,300.000000,300.013080
3.8860,300.000000,300.021330
3.8870,300.000000,300.016619
3.8880,300.000000,299.991286
3.8890,300.000000,300.001004
3.8900,300.000000,299.989456
3.8910,300.000000,299.979949
3.8920,300.000000,299.988786
3.8930,300.000000,299.979060
3.8940,300.000000,299.972642
3.8950,300.000000,299.961408
3.8960,300.000000,299.972526
3.8970,300.000000,299.975829
3.8980,300.000000,299.972413
3.8990,300.000000,299.994114
3.9000,300.000000,299.988270
3.9010,300.000000,300.015564
3.9020,300.000000,300.006418
3.9030,300.000000,300.012333
3.9040,300.000000,300.028577
3.9050,300.000000,300.027875
3.9060,300.000000,300.006263
3.9070,300.000000,300.013398
3.9080,300.000000,300.008344
3.9090,300.000000,300.003611
3.9100,300.000000,299.997104
3.9110,300.000000,299.988849
3.9120,300.000000,299.983028
3.9130,300.000000,299.992951
3.9140,300.000000,299.963784
3.9150,300.000000,299.967110
3.9160,300.000000,299.973882
3.9170,300.000000,299.986538
3.9180,300.000000,299.982600
3.9190,300.000000,299.993154
3.9200,300.000000,300.000575
3.9210,300.000000,300.000132
3.9220,300.000000,299.991476
3.9230,300.000000,299.994246
3.9240,300.000000,300.004103
3.9250,300.000000,300.010217
3.9260,300.000000,300.021526
3.9270,300.000000,300.011622
3.9280,300.000000,299.998911
3.9290,300.000000,299.999061
3.9300,300.000000,299.979553
3.9310,300.000000,299.994653
3.9320,300.000000,299.983527
3.9330,300.000000,299.969336
3.9340,300.000000,299.972896
3.9350,300.000000,299.959231
3.9360,300.000000,299.984400
3.9370,300.000000,299.966464
3.9380,300.000000,299.975093
3.9390,300.000000,300.002093
3.9400,300.000000,299.976559
3.9410,300.000000,299.997615
3.9420,300.000000,300.002433
3.9430,300.000000,300.016099
3.9440,300.000000,300.007137
3.9450,300.000000,300.001238
3.9460,300.000000,300.016258
3.9470,300.000000,300.013383
3.9480,300.000000,300.011422
3.9490,300.000000,299.989253
3.9500,300.000000,299.990655
3.9510,300.000000,299.987460
3.9520,300.000000,299.969338
3.9530,300.000000,299.982283
3.9540,300.000000,299.955671
3.9550,300.000000,299.973198
3.9560,300.000000,299.967745
3.9570,300.000000,299.973735
3.9580,300.000000,299.985069
3.9590,300.000000,299.982957
3.9600,300.000000,299.996231
3.9610,300.000000,300.003294
3.9620,300.000000,300.002569
3.9630,300.000000,299.983454
3.9640,300.000000,300.016496
3.9650,300.000000,300.012931
3.9660,300.000000,299.997727
3.9670,300.000000,300.000180
3.9680,300.000000,299.991183
3.9690,300.000000,299.991009
3.9700,300.000000,299.993851
3.9710,300.000000,299.978474
3.9720,300.000000,299.989194
3.9730,300.000000,299.987058
3.9740,300.000000,299.958443
3.9750,300.000000,299.961476
3.9760,300.000000,299.953266
3.9770,300.000000,299.959903
3.9780,300.000000,299.966799
3.9790,300.000000,299.981121
3.9800,300.000000,299.989583
3.9810,300.000000,300.005072
3.9820,300.000000,299.989911
3.9830,300.000000,299.997557
3.9840,300.000000,300.000963
3.9850,300.000000,300.025948
3.9860,300.000000,300.009771
3.9870,300.000000,300.001140
3.9880,300.000000,299.993740
3.9890,300.000000,300.002871
3.9900,300.000000,299.999668
3.9910,300.000000,299.978438
3.9920,300.000000,299.994109
3.9930,300.000000,299.979215
3.9940,300.000000,299.978587
3.9950,300.000000,299.983367
3.9960,300.000000,299.976486
3.9970,300.000000,299.959716
3.9980,300.000000,299.975286
3.9990,300.000000,299.985815
4.0000,300.000000,299.997540
4.0010,300.000000,299.998742
4.0020,300.000000,299.997939
4.0030,300.000000,300.003624
4.0040,300.000000,300.014272
4.0050,300.000000,300.019732
4.0060,300.000000,300.010967
4.0070,300.000000,299.997207
4.0080,300.000000,300.017483
4.0090,300.000000,299.993027
4.0100,300.000000,299.982587
4.0110,300.000000,299.970189
4.0120,300.000000,299.979085
4.0130,300.000000,299.991637
4.0140,300.000000,299.969528
4.0150,300.000000,299.973999
4.0160,300.000000,299.981325
4.0170,300.001832,299.973843
4.0180,300.002231,299.971257
4.0190,300.002705,299.969294
4.0200,300.003263,299.987207
4.0210,300.003916,299.999522
4.0220,300.004677,300.015862
4.0230,300.005558,300.013655
4.0240,300.006571,300.015395
4.0250,300.007730,300.018866
4.0260,300.009049,300.011438
4.0270,300.010540,299.993837
4.0280,300.012215,300.022828
4.0290,300.014086,300.021053
4.0300,300.016162,300.007828
4.0310,300.018452,300.015389
4.0320,300.020961,300.009176
4.0330,300.023693,299.992615
4.0340,300.026647,299.981967
4.0350,300.029820,300.001127
4.0360,300.033204,299.996755
4.0370,300.036788,300.021605
4.0380,300.040555,300.013857
4.0390,300.044486,300.034419
4.0400,300.048554,300.025719
4.0410,300.052729,300.015629
4.0420,300.056978,300.044409
4.0430,300.061263,300.056185
4.0440,300.065541,300.083964
4.0450,300.069768,300.077809
4.0460,300.073897,300.062067
4.0470,300.077880,300.077021
4.0480,300.081669,300.081067
4.0490,300.085214,300.080663
4.0500,300.088471,300.058648
4.0510,300.091393,300.050763
4.0520,300.093941,300.084962
4.0530,300.096079,300.074245
4.0540,300.097775,300.077829
4.0550,300.099005,300.058718
4.0560,300.099750,300.079921
4.0570,300.100000,300.075266
4.0580,300.099750,300.076880
4.0590,300.099005,300.054458
4.0600,300.097775,300.093089
4.0610,300.096079,300.094880
4.0620,300.093941,300.092765
4.0630,300.091393,300.092994
4.0640,300.088471,300.098946
4.0650,300.085214,300.077544
4.0660,300.081669,300.100311
4.0670,300.077880,300.078759
4.0680,300.073897,300.048343
4.0690,300.069768,300.074463
4.0700,300.065541,300.050178
4.0710,300.061263,300.057466
4.0720,300.056978,300.019565
4.0730,300.052729,300.028690
4.0740,300.048554,300.023051
4.0750,300.044486,300.017087
4.0760,300.040555,300.010388
4.0770,300.036788,300.006283
4.0780,300.033204,300.003752
4.0790,300.029820,300.014062
4.0800,300.026647,300.027846
4.0810,300.023693,300.011936
4.0820,300.020961,300.007679
4.0830,300.018452,300.004446
4.0840,300.016162,300.022328
4.0850,300.014086,300.020242
4.0860,300.012215,300.025240
4.0870,300.010540,300.003250
4.0880,300.009049,300.004362
4.0890,300.007730,300.009075
4.0900,300.006571,299.995827
4.0910,300.005558,299.978801
4.0920,300.004677,299.978205
4.0930,300.003916,299.956621
4.0940,300.003263,299.969745
4.0950,300.002705,299.966304
4.0960,300.002231,299.969639
4.0970,300.000000,299.966206
4.0980,300.000000,299.973695
4.0990,300.000000,299.988305
4.1000,300.000000,299.989202
4.1010,300.000000,299.994895
4.1020,300.000000,300.007944
4.1030,300.000000,299.992374
4.1040,300.000000,300.006290
4.1050,300.000000,299.997641
4.1060,300.000000,299.997055
4.1070,300.000000,300.015516
4.1080,300.000000,300.019328
4.1090,300.000000,299.989703
4.1100,300.000000,299.983835
4.1110,300.000000,299.972673
4.1120,300.000000,299.967151
4.1130,300.000000,299.962382
4.1140,300.000000,299.952542
4.1150,300.000000,299.953494
4.1160,300.000000,299.956693
4.1170,300.000000,299.970535
4.1180,299.979209,299.953640
4.1190,299.959326,299.939230
4.1200,299.941221,299.921136
4.1210,299.925686,299.906207
4.1220,299.913397,299.908101
4.1230,299.904894,299.894511
4.1240,299.900548,299.903917
4.1250,299.918863,299.938704
4.1260,299.939591,299.963967
4.1270,299.975574,299.965127
4.1280,300.031085,300.027797
4.1290,300.110235,300.101667
4.1300,300.215702,300.202884
4.1310,300.347088,300.317645
4.1320,300.499352,300.495415
4.1330,300.641180,300.591636
4.1340,300.778801,300.735134
4.1350,300.894839,300.858196
