time_s,ecg_clean_mv,ecg_noisy_mv
0.0000,280.000000,280.001938
0.0010,280.000000,280.007010
0.0020,280.000000,280.006209
0.0030,280.000000,279.996221
0.0040,280.000000,280.001320
0.0050,280.000000,280.005885
0.0060,280.000000,280.010675
0.0070,280.000000,280.002290
0.0080,280.000000,280.001236
0.0090,280.000000,279.999307
0.0100,280.000000,279.995736
0.0110,280.000000,280.000718
0.0120,280.000000,279.993401
0.0130,280.000000,280.005612
0.0140,280.000000,279.993824
0.0150,280.000000,279.990967
0.0160,280.000000,279.986498
0.0170,280.000000,279.985185
0.0180,280.000000,280.006177
0.0190,280.000000,280.003261
0.0200,280.000000,280.001384
0.0210,280.000000,280.002535
0.0220,280.000000,279.995493
0.0230,280.000000,280.004012
0.0240,280.000000,280.000219
0.0250,280.000000,280.005801
0.0260,280.000549,280.004155
0.0270,280.000669,280.008535
0.0280,280.000812,280.003394
0.0290,280.000979,279.998493
0.0300,280.001175,280.001909
0.0310,280.001403,280.001605
0.0320,280.001667,280.003350
0.0330,280.001971,280.008257
0.0340,280.002319,280.010489
0.0350,280.002715,279.993582
0.0360,280.003162,279.997854
0.0370,280.003665,279.997313
0.0380,280.004226,279.990614
0.0390,280.004849,280.008573
0.0400,280.005536,280.012057
0.0410,280.006288,280.005389
0.0420,280.007108,280.018535
0.0430,280.007994,280.016731
0.0440,280.008946,280.021286
0.0450,280.009961,280.018984
0.0460,280.011036,280.017629
0.0470,280.012167,280.023747
0.0480,280.013346,280.021643
0.0490,280.014566,280.017301
0.0500,280.015819,280.022902
0.0510,280.017093,280.017675
0.0520,280.018379,280.015431
0.0530,280.019662,280.012319
0.0540,280.020930,280.027919
0.0550,280.022169,280.015728
0.0560,280.023364,280.010944
0.0570,280.024501,280.029970
0.0580,280.025564,280.028004
0.0590,280.026541,280.017366
0.0600,280.027418,280.036521
0.0610,280.028182,280.036610
0.0620,280.028824,280.039964
0.0630,280.029333,280.038868
0.0640,280.029701,280.041102
0.0650,280.029925,280.040330
0.0660,280.030000,280.038784
0.0670,280.029925,280.041756
0.0680,280.029701,280.038465
0.0690,280.029333,280.028050
0.0700,280.028824,280.027896
0.0710,280.028182,280.029211
0.0720,280.027418,280.019804
0.0730,280.026541,280.024257
0.0740,280.025564,280.024605
0.0750,280.024501,280.017291
0.0760,280.023364,280.027970
0.0770,280.022169,280.015635
0.0780,280.020930,280.018484
0.0790,280.019662,280.024251
0.0800,280.018379,280.018898
0.0810,280.017093,280.025282
0.0820,280.015819,280.018955
0.0830,280.014566,280.030805
0.0840,280.013346,280.019841
0.0850,280.012167,280.016478
0.0860,280.011036,280.023581
0.0870,280.009961,280.019375
0.0880,280.008946,280.008722
0.0890,280.007994,280.015859
0.0900,280.007108,280.015459
0.0910,280.006288,280.020601
0.0920,280.005536,280.008141
0.0930,280.004849,279.997097
0.0940,280.004226,280.015937
0.0950,280.003665,280.005253
0.0960,280.003162,279.992488
0.0970,280.002715,280.006213
0.0980,280.002319,280.004868
0.0990,280.001971,280.009232
0.1000,280.001667,280.010646
0.1010,280.001403,280.011939
0.1020,280.001175,280.011447
0.1030,280.000979,280.011788
0.1040,280.000812,280.016173
0.1050,280.000669,280.002294
0.1060,280.000000,280.007959
0.1070,280.000000,280.012476
0.1080,280.000000,280.005887
0.1090,280.000000,280.008813
0.1100,280.000000,280.000607
0.1110,280.000000,280.002203
0.1120,280.000000,280.003577
0.1130,280.000000,280.005320
0.1140,280.000000,280.008302
0.1150,280.000000,280.005147
0.1160,280.000000,280.003756
0.1170,280.000000,279.997474
0.1180,280.000000,280.005763
0.1190,280.000000,280.000845
0.1200,280.000000,280.003780
0.1210,280.000000,280.004931
0.1220,280.000000,280.018338
0.1230,280.000000,280.011659
0.1240,280.000000,280.009010
0.1250,280.000000,280.023458
0.1260,280.000000,280.004229
0.1270,279.993763,280.002048
0.1280,279.987798,280.001787
0.1290,279.982366,279.990250
0.1300,279.977706,279.988752
0.1310,279.974019,279.977068
0.1320,279.971468,279.975051
0.1330,279.970164,279.975207
0.1340,279.975659,279.978309
0.1350,279.981877,279.979289
0.1360,279.992672,279.991006
0.1370,280.009325,280.009134
0.1380,280.033070,280.032481
0.1390,280.064711,280.074041
0.1400,280.104126,280.114398
0.1410,280.149806,280.155043
0.1420,280.192354,280.209357
0.1430,280.233640,280.252086
0.1440,280.268452,280.290491
0.1450,280.291781,280.321563
0.1460,280.300000,280.305522
0.1470,280.291781,280.298200
0.1480,280.268452,280.280811
0.1490,280.233640,280.244912
0.1500,280.192354,280.203449
0.1510,280.149806,280.154866
0.1520,280.110364,280.118534
0.1530,280.076913,280.071834
0.1540,280.050704,280.048723
0.1550,280.031620,280.035710
0.1560,280.018653,280.027211
0.1570,280.010409,280.014602
0.1580,280.000000,279.997425
0.1590,280.000000,280.012730
0.1600,280.000000,280.009810
0.1610,280.000000,280.006351
0.1620,280.000000,280.007994
0.1630,280.000000,280.010344
0.1640,280.000000,280.010721
0.1650,280.000000,280.007183
0.1660,279.955000,279.972374
0.1670,279.961268,279.969299
0.1680,279.966663,279.978190
0.1690,279.971307,279.981999
0.1700,279.975303,279.982433
0.1710,279.978744,279.989728
0.1720,279.981704,279.989194
0.1730,279.984253,279.987254
0.1740,279.986446,279.985282
0.1750,279.988334,279.985503
0.1760,279.989959,279.998537
0.1770,279.991358,279.996792
0.1780,279.992562,280.003376
0.1790,279.993598,279.995999
0.1800,279.994489,280.006804
0.1810,279.995257,279.991470
0.1820,279.995918,280.023581
0.1830,279.996486,280.018773
0.1840,279.996976,280.004491
0.1850,279.997397,280.010118
0.1860,280.000000,280.013760
0.1870,280.000000,280.011740
0.1880,280.000000,280.011543
0.1890,280.000000,280.013719
0.1900,280.000000,280.005766
0.1910,280.000000,280.001614
0.1920,280.000000,280.015348
0.1930,280.000000,280.010843
0.1940,280.000000,280.003588
0.1950,280.000000,280.003165
0.1960,280.000000,280.003148
0.1970,280.000000,280.005263
0.1980,280.000000,280.006005
0.1990,280.000000,280.005220
0.2000,280.000000,280.006815
0.2010,280.000000,280.009518
0.2020,280.000000,280.011239
0.2030,280.000000,280.019057
0.2040,280.000000,280.021059
0.2050,280.000000,280.011973
0.2060,280.000000,280.021025
0.2070,280.000000,280.023723
0.2080,280.000000,280.018015
0.2090,280.000000,280.011534
0.2100,280.000000,280.004832
0.2110,280.000000,280.002108
0.2120,280.000000,280.010534
0.2130,280.000000,280.009788
0.2140,280.000000,280.014210
0.2150,280.000000,280.000986
0.2160,280.000000,279.999266
0.2170,280.000000,280.004718
0.2180,280.000000,279.997509
0.2190,280.000000,280.003686
0.2200,280.000000,280.025940
0.2210,280.000000,280.016314
0.2220,280.000000,280.011246
0.2230,280.000000,280.013872
0.2240,280.000000,280.028169
0.2250,280.000000,280.010170
0.2260,280.001648,280.022520
0.2270,280.001821,280.005310
0.2280,280.002008,280.024939
0.2290,280.002213,280.016005
0.2300,280.002435,280.013309
0.2310,280.002676,280.017653
0.2320,280.002937,280.013676
0.2330,280.003219,280.012583
0.2340,280.003525,280.011013
0.2350,280.003854,280.013924
0.2360,280.004209,280.011515
0.2370,280.004591,280.014895
0.2380,280.005002,280.013514
0.2390,280.005442,280.008878
0.2400,280.005914,280.025806
0.2410,280.006419,280.024598
0.2420,280.006957,280.031493
0.2430,280.007532,280.029170
0.2440,280.008144,280.016112
0.2450,280.008795,280.026102
0.2460,280.009486,280.030333
0.2470,280.010218,280.025119
0.2480,280.010994,280.021091
0.2490,280.011813,280.029786
0.2500,280.012677,280.027854
0.2510,280.013588,280.024726
0.2520,280.014546,280.028095
0.2530,280.015552,280.029114
0.2540,280.016607,280.024463
0.2550,280.017711,280.019661
0.2560,280.018865,280.029137
0.2570,280.020069,280.030080
0.2580,280.021323,280.026769
0.2590,280.022628,280.031766
0.2600,280.023982,280.036707
0.2610,280.025386,280.037450
0.2620,280.026838,280.047253
0.2630,280.028337,280.055133
0.2640,280.029884,280.047285
0.2650,280.031475,280.053370
0.2660,280.033109,280.060200
0.2670,280.034785,280.057052
0.2680,280.036500,280.057629
0.2690,280.038252,280.056700
0.2700,280.040037,280.058879
0.2710,280.041854,280.053180
0.2720,280.043698,280.053474
0.2730,280.045567,280.053565
0.2740,280.047456,280.063585
0.2750,280.049362,280.058682
0.2760,280.051280,280.066054
0.2770,280.053207,280.067660
0.2780,280.055136,280.064664
0.2790,280.057065,280.070287
0.2800,280.058987,280.078689
0.2810,280.060897,280.082484
0.2820,280.062791,280.081693
0.2830,280.064663,280.091099
0.2840,280.066507,280.080686
0.2850,280.068319,280.088861
0.2860,280.070092,280.090248
0.2870,280.071822,280.091077
0.2880,280.073502,280.100311
0.2890,280.075127,280.095130
0.2900,280.076693,280.092419
0.2910,280.078193,280.086553
0.2920,280.079624,280.102439
0.2930,280.080979,280.091576
0.2940,280.082254,280.085521
0.2950,280.083445,280.093875
0.2960,280.084547,280.099878
0.2970,280.085557,280.088232
0.2980,280.086471,280.097224
0.2990,280.087286,280.098374
0.3000,280.087998,280.106513
0.3010,280.088605,280.105367
0.3020,280.089104,280.117524
0.3030,280.089495,280.119986
0.3040,280.089775,280.115238
0.3050,280.089944,280.117123
0.3060,280.090000,280.118189
0.3070,280.089944,280.107415
0.3080,280.089775,280.107849
0.3090,280.089495,280.103827
0.3100,280.089104,280.103299
0.3110,280.088605,280.107585
0.3120,280.087998,280.102146
0.3130,280.087286,280.111668
0.3140,280.086471,280.097912
0.3150,280.085557,280.094783
0.3160,280.084547,280.093683
0.3170,280.083445,280.096792
0.3180,280.082254,280.088514
0.3190,280.080979,280.089220
0.3200,280.079624,280.098437
0.3210,280.078193,280.100503
0.3220,280.076693,280.094112
0.3230,280.075127,280.100042
0.3240,280.073502,280.089307
0.3250,280.071822,280.095727
0.3260,280.070092,280.086210
0.3270,280.068319,280.092220
0.3280,280.066507,280.088178
0.3290,280.064663,280.086164
0.3300,280.062791,280.077406
0.3310,280.060897,280.072696
0.3320,280.058987,280.077124
0.3330,280.057065,280.078329
0.3340,280.055136,280.063926
0.3350,280.053207,280.065420
0.3360,280.051280,280.073065
0.3370,280.049362,280.064784
0.3380,280.047456,280.071555
0.3390,280.045567,280.063449
0.3400,280.043698,280.060225
0.3410,280.041854,280.065233
0.3420,280.040037,280.065703
0.3430,280.038252,280.059236
0.3440,280.036500,280.067180
0.3450,280.034785,280.058645
0.3460,280.033109,280.054132
0.3470,280.031475,280.049655
0.3480,280.029884,280.048855
0.3490,280.028337,280.055312
0.3500,280.026838,280.039524
0.3510,280.025386,280.041601
0.3520,280.023982,280.037395
0.3530,280.022628,280.032089
0.3540,280.021323,280.031344
0.3550,280.020069,280.038671
0.3560,280.018865,280.035094
0.3570,280.017711,280.030237
0.3580,280.016607,280.033289
0.3590,280.015552,280.032175
0.3600,280.014546,280.040611
0.3610,280.013588,280.036975
0.3620,280.012677,280.035732
0.3630,280.011813,280.036139
0.3640,280.010994,280.036451
0.3650,280.010218,280.034609
0.3660,280.009486,280.034547
0.3670,280.008795,280.024957
0.3680,280.008144,280.028357
0.3690,280.007532,280.028647
0.3700,280.006957,280.025362
0.3710,280.006419,280.015861
0.3720,280.005914,280.029622
0.3730,280.005442,280.017675
0.3740,280.005002,280.022586
0.3750,280.004591,280.016915
0.3760,280.004209,280.023628
0.3770,280.003854,280.026356
0.3780,280.003525,280.032696
0.3790,280.003219,280.025585
0.3800,280.002937,280.021930
0.3810,280.002676,280.028474
0.3820,280.002435,280.018306
0.3830,280.002213,280.030279
0.3840,280.002008,280.029020
0.3850,280.001821,280.020420
0.3860,280.000000,280.023816
0.3870,280.000000,280.032675
0.3880,280.000000,280.019545
0.3890,280.000000,280.022488
0.3900,280.000000,280.012965
0.3910,280.000000,280.019646
0.3920,280.000000,280.014871
0.3930,280.000000,279.999821
0.3940,280.000000,280.013736
0.3950,280.000000,280.018733
0.3960,280.000000,280.010555
0.3970,280.000000,280.014879
0.3980,280.000000,280.020723
0.3990,280.000000,280.014551
0.4000,280.000000,280.016338
0.4010,280.000000,280.020213
0.4020,280.000000,280.026261
0.4030,280.000000,280.029829
0.4040,280.000000,280.027937
0.4050,280.000000,280.024999
0.4060,280.000000,280.030919
0.4070,280.000000,280.028546
0.4080,280.000000,280.024427
0.4090,280.000000,280.013937
0.4100,280.000000,280.025705
0.4110,280.000000,280.020006
0.4120,280.000000,280.018116
0.4130,280.000000,280.023421
0.4140,280.000000,280.017186
0.4150,280.000000,280.004645
0.4160,280.000000,280.020063
0.4170,280.000000,280.023062
0.4180,280.000000,280.016213
0.4190,280.000000,280.024926
0.4200,280.000000,280.033855
0.4210,280.000000,280.029441
0.4220,280.000000,280.020336
0.4230,280.000000,280.028598
0.4240,280.000000,280.032588
0.4250,280.000000,280.034095
0.4260,280.000000,280.027115
0.4270,280.000000,280.031542
0.4280,280.000000,280.027268
0.4290,280.000000,280.029423
0.4300,280.000000,280.020791
0.4310,280.000000,280.024196
0.4320,280.000000,280.022691
0.4330,280.000000,280.011612
0.4340,280.000000,280.016175
0.4350,280.000000,280.016207
0.4360,280.000000,280.015371
0.4370,280.000000,280.011852
0.4380,280.000000,280.027615
0.4390,280.000000,280.024904
0.4400,280.000000,280.018821
0.4410,280.000000,280.022152
0.4420,280.000000,280.036632
0.4430,280.000000,280.023626
0.4440,280.000000,280.030355
0.4450,280.000000,280.030328
0.4460,280.000000,280.035008
0.4470,280.000000,280.030812
0.4480,280.000000,280.022069
0.4490,280.000000,280.026998
0.4500,280.000000,280.024356
0.4510,280.000000,280.019407
0.4520,280.000000,280.016565
0.4530,280.000000,280.019934
0.4540,280.000000,280.016030
0.4550,280.000000,280.018693
0.4560,280.000000,280.019374
0.4570,280.000000,280.021257
0.4580,280.000000,280.015777
0.4590,280.000000,280.020713
0.4600,280.000000,280.019426
0.4610,280.000000,280.021298
0.4620,280.000000,280.031390
0.4630,280.000000,280.030956
0.4640,280.000000,280.036952
0.4650,280.000000,280.023038
0.4660,280.000000,280.028396
0.4670,280.000000,280.026873
0.4680,280.000000,280.035999
0.4690,280.000000,280.022632
0.4700,280.000000,280.022247
0.4710,280.000000,280.029100
0.4720,280.000000,280.029392
0.4730,280.000000,280.009086
0.4740,280.000000,280.020703
0.4750,280.000000,280.013780
0.4760,280.000000,280.024827
0.4770,280.000000,280.024070
0.4780,280.000000,280.018171
0.4790,280.000000,280.019345
0.4800,280.000000,280.022683
0.4810,280.000000,280.027783
0.4820,280.000000,280.021925
0.4830,280.000000,280.026796
0.4840,280.000000,280.034247
0.4850,280.000000,280.029079
0.4860,280.000000,280.031308
0.4870,280.000000,280.024927
0.4880,280.000000,280.028119
0.4890,280.000000,280.026900
0.4900,280.000000,280.026890
0.4910,280.000000,280.026308
0.4920,280.000000,280.018451
0.4930,280.000000,280.027972
0.4940,280.000000,280.012313
0.4950,280.000000,280.016509
0.4960,280.000000,280.011377
0.4970,280.000000,280.024019
0.4980,280.000000,280.020404
0.4990,280.000000,280.021236
0.5000,280.000000,280.023968
0.5010,280.000000,280.020251
0.5020,280.000000,280.023956
0.5030,280.000000,280.038400
0.5040,280.000000,280.034523
0.5050,280.000000,280.034079
0.5060,280.000000,280.036710
0.5070,280.000000,280.030924
0.5080,280.000000,280.029732
0.5090,280.000000,280.021177
0.5100,280.000000,280.020437
0.5110,280.000000,280.029579
0.5120,280.000000,280.016301
0.5130,280.000000,280.016716
0.5140,280.000000,280.014331
0.5150,280.000000,280.020342
0.5160,280.000000,280.020090
0.5170,280.000000,280.020600
0.5180,280.000000,280.010531
0.5190,280.000000,280.024069
0.5200,280.000000,280.028461
0.5210,280.000000,280.030577
0.5220,280.000000,280.025477
0.5230,280.000000,280.037263
0.5240,280.000000,280.033456
0.5250,280.000000,280.031470
0.5260,280.000000,280.037397
0.5270,280.000000,280.029444
0.5280,280.000000,280.034827
0.5290,280.000000,280.027878
0.5300,280.000000,280.019836
0.5310,280.000000,280.024637
0.5320,280.000000,280.029795
0.5330,280.000000,280.018844
0.5340,280.000000,280.021170
0.5350,280.000000,280.020637
0.5360,280.000000,280.016648
0.5370,280.000000,280.017778
0.5380,280.000000,280.023598
0.5390,280.000000,280.026493
0.5400,280.000000,280.023516
0.5410,280.000000,280.037821
0.5420,280.000000,280.032500
0.5430,280.000000,280.027281
0.5440,280.000000,280.038207
0.5450,280.000000,280.037624
0.5460,280.000000,280.042602
0.5470,280.000000,280.032386
0.5480,280.000000,280.030424
0.5490,280.000000,280.032381
0.5500,280.000000,280.029101
0.5510,280.000000,280.024442
0.5520,280.000000,280.022340
0.5530,280.000000,280.021508
0.5540,280.000000,280.023196
0.5550,280.000000,280.021018
0.5560,280.000000,280.012405
0.5570,280.000000,280.024804
0.5580,280.000000,280.030854
0.5590,280.000000,280.022643
0.5600,280.000000,280.028364
0.5610,280.000000,280.028545
0.5620,280.000000,280.033889
0.5630,280.000000,280.037472
0.5640,280.000000,280.039337
0.5650,280.000000,280.031694
0.5660,280.000000,280.035881
0.5670,280.000000,280.042118
0.5680,280.000000,280.029554
0.5690,280.000000,280.030165
0.5700,280.000000,280.027442
0.5710,280.000000,280.031767
0.5720,280.000000,280.022141
0.5730,280.000000,280.037195
0.5740,280.000000,280.026890
0.5750,280.000000,280.022557
0.5760,280.000000,280.031400
0.5770,280.000000,280.017050
0.5780,280.000000,280.019531
0.5790,280.000000,280.025838
0.5800,280.000000,280.028624
0.5810,280.000000,280.029950
0.5820,280.000000,280.036335
0.5830,280.000000,280.029854
0.5840,280.000000,280.037960
0.5850,280.000000,280.035851
0.5860,280.000000,280.039311
0.5870,280.000000,280.036640
0.5880,280.000000,280.028354
0.5890,280.000000,280.037079
0.5900,280.000000,280.029633
0.5910,280.000000,280.024060
0.5920,280.000000,280.032408
0.5930,280.000000,280.016494
0.5940,280.000000,280.015255
0.5950,280.000000,280.024137
0.5960,280.000000,280.021793
0.5970,280.000000,280.032439
0.5980,280.000000,280.027872
0.5990,280.000000,280.025869
0.6000,280.000000,280.028946
0.6010,280.000000,280.038012
0.6020,280.000000,280.034261
0.6030,280.000000,280.036741
0.6040,280.000000,280.037894
0.6050,280.000000,280.044137
0.6060,280.000000,280.037671
0.6070,280.000000,280.033757
0.6080,280.000000,280.032228
0.6090,280.000000,280.031456
0.6100,280.000000,280.031998
0.6110,280.000000,280.024517
0.6120,280.000000,280.025697
0.6130,280.000000,280.035211
0.6140,280.000000,280.021198
0.6150,280.000000,280.020526
0.6160,280.000000,280.031400
0.6170,280.000000,280.025140
0.6180,280.000000,280.029746
0.6190,280.000000,280.039111
0.6200,280.000000,280.029465
0.6210,280.000000,280.034016
0.6220,280.000000,280.029960
0.6230,280.000000,280.034024
0.6240,280.000000,280.035826
0.6250,280.000000,280.027049
0.6260,280.000000,280.041431
0.6270,280.000000,280.038364
0.6280,280.000000,280.035569
0.6290,280.000000,280.035557
0.6300,280.000000,280.021476
0.6310,280.000000,280.032361
0.6320,280.000000,280.020887
0.6330,280.000000,280.022776
0.6340,280.000000,280.028339
0.6350,280.000000,280.018418
0.6360,280.000000,280.026290
0.6370,280.000000,280.036145
0.6380,280.000000,280.025937
0.6390,280.000000,280.033415
0.6400,280.000000,280.021132
0.6410,280.000000,280.040442
0.6420,280.000000,280.033671
0.6430,280.000000,280.033853
0.6440,280.000000,280.033980
0.6450,280.000000,280.027626
0.6460,280.000000,280.037591
0.6470,280.000000,280.028697
0.6480,280.000000,280.026969
0.6490,280.000000,280.028906
0.6500,280.000000,280.033440
0.6510,280.000000,280.021726
0.6520,280.000000,280.023137
0.6530,280.000000,280.033320
0.6540,280.000000,280.025363
0.6550,280.000000,280.029898
0.6560,280.000000,280.026011
0.6570,280.000000,280.030090
0.6580,280.000000,280.030020
0.6590,280.000000,280.032267
0.6600,280.000000,280.037824
0.6610,280.000000,280.027369
0.6620,280.000000,280.039322
0.6630,280.000000,280.038108
0.6640,280.000000,280.031051
0.6650,280.000000,280.036877
0.6660,280.000000,280.035956
0.6670,280.000000,280.032725
0.6680,280.000000,280.036546
0.6690,280.000000,280.036694
0.6700,280.000000,280.043145
0.6710,280.000000,280.030167
0.6720,280.000000,280.022868
0.6730,280.000000,280.029987
0.6740,280.000000,280.034953
0.6750,280.000000,280.019457
0.6760,280.000000,280.022680
0.6770,280.000000,280.022518
0.6780,280.000000,280.017098
0.6790,280.000000,280.033374
0.6800,280.000000,280.028500
0.6810,280.000000,280.033948
0.6820,280.000000,280.040209
0.6830,280.000000,280.031432
0.6840,280.000000,280.034915
0.6850,280.000000,280.034792
0.6860,280.000000,280.027138
0.6870,280.000000,280.034609
0.6880,280.000000,280.027204
0.6890,280.000000,280.035400
0.6900,280.000000,280.035809
0.6910,280.000000,280.023466
0.6920,280.000000,280.037344
0.6930,280.000000,280.033226
0.6940,280.000000,280.026553
0.6950,280.000000,280.021198
0.6960,280.000000,280.026282
0.6970,280.000000,280.037118
0.6980,280.000000,280.031171
0.6990,280.000000,280.025819
0.7000,280.000000,280.028766
0.7010,280.000000,280.028064
0.7020,280.000000,280.028391
0.7030,280.000000,280.040261
0.7040,280.000000,280.033112
0.7050,280.000000,280.041952
0.7060,280.000000,280.045411
0.7070,280.000000,280.051822
0.7080,280.000000,280.037298
0.7090,280.000000,280.020044
0.7100,280.000000,280.038815
0.7110,280.000000,280.031582
0.7120,280.000000,280.027417
0.7130,280.000000,280.028868
0.7140,280.000000,280.023686
0.7150,280.000000,280.033211
0.7160,280.000000,280.027611
0.7170,280.000000,280.031326
0.7180,280.000000,280.029364
0.7190,280.000000,280.034834
0.7200,280.000000,280.033190
0.7210,280.000000,280.031815
0.7220,280.000000,280.040926
0.7230,280.000000,280.047373
0.7240,280.000000,280.039181
0.7250,280.000000,280.049282
0.7260,280.000000,280.046532
0.7270,280.000000,280.039802
0.7280,280.000000,280.045061
0.7290,280.000000,280.031737
0.7300,280.000000,280.043741
0.7310,280.000000,280.028774
0.7320,280.000000,280.014581
0.7330,280.000000,280.029446
0.7340,280.000000,280.030743
0.7350,280.000000,280.028689
0.7360,280.000000,280.026028
0.7370,280.000000,280.027610
0.7380,280.000000,280.024431
0.7390,280.000000,280.028725
0.7400,280.000000,280.040613
0.7410,280.000000,280.041585
0.7420,280.000000,280.038542
0.7430,280.000000,280.034970
0.7440,280.000000,280.037177
0.7450,280.000000,280.041084
0.7460,280.000000,280.037916
0.7470,280.000000,280.040405
0.7480,280.000000,280.040493
0.7490,280.000000,280.038750
0.7500,280.000000,280.033482
0.7510,280.000000,280.024082
0.7520,280.000000,280.032456
0.7530,280.000000,280.028184
0.7540,280.000000,280.023989
0.7550,280.000000,280.027968
0.7560,280.000000,280.034909
0.7570,280.000000,280.028163
0.7580,280.000000,280.029527
0.7590,280.000000,280.032562
0.7600,280.000000,280.028842
0.7610,280.000000,280.039648
0.7620,280.000000,280.044306
0.7630,280.000000,280.037370
0.7640,280.000000,280.040004
0.7650,280.000000,280.034326
0.7660,280.000000,280.036019
0.7670,280.000000,280.036827
0.7680,280.000000,280.031405
0.7690,280.000000,280.042135
0.7700,280.000000,280.039053
0.7710,280.000000,280.035202
0.7720,280.000000,280.025324
0.7730,280.000000,280.024430
0.7740,280.000000,280.025436
0.7750,280.000000,280.027392
0.7760,280.000000,280.034584
0.7770,280.000000,280.037830
0.7780,280.000000,280.033343
0.7790,280.000000,280.028958
0.7800,280.000000,280.041279
0.7810,280.000000,280.032258
0.7820,280.000000,280.034257
0.7830,280.000000,280.037823
0.7840,280.000000,280.044811
0.7850,280.000000,280.042362
0.7860,280.000000,280.044000
0.7870,280.000000,280.027126
0.7880,280.000000,280.038583
0.7890,280.000000,280.033717
0.7900,280.000000,280.040672
0.7910,280.000000,280.039375
0.7920,280.000000,280.037255
0.7930,280.000000,280.033620
0.7940,280.000000,280.020760
0.7950,280.000000,280.034130
0.7960,280.000000,280.036685
0.7970,280.000000,280.024583
0.7980,280.000000,280.027396
0.7990,280.000000,280.032062
0.8000,280.000000,280.034833
0.8010,280.000000,280.044202
0.8020,280.000000,280.043341
0.8030,280.000000,280.043876
0.8040,280.000000,280.045969
0.8050,280.000000,280.040832
0.8060,280.000000,280.032004
0.8070,280.000000,280.044753
0.8080,280.000000,280.040762
0.8090,280.000000,280.042017
0.8100,280.000000,280.042340
0.8110,280.000000,280.024188
0.8120,280.000000,280.034395
0.8130,280.000000,280.028976
0.8140,280.000000,280.038951
0.8150,280.000000,280.030037
0.8160,280.000000,280.029888
0.8170,280.000000,280.030668
0.8180,280.000000,280.042620
0.8190,280.000000,280.035768
0.8200,280.000000,280.038835
0.8210,280.000000,280.045131
0.8220,280.000000,280.041893
0.8230,280.000000,280.042151
0.8240,280.000000,280.046959
0.8250,280.000000,280.043849
0.8260,280.000000,280.045752
0.8270,280.000000,280.032479
0.8280,280.000000,280.050064
0.8290,280.000000,280.034822
0.8300,280.000000,280.033257
0.8310,280.000000,280.031069
0.8320,280.000000,280.026578
0.8330,280.000000,280.037672
0.8340,280.000000,280.029796
0.8350,280.000000,280.023758
0.8360,280.000000,280.027388
0.8370,280.000000,280.028150
0.8380,280.000000,280.039255
0.8390,280.000000,280.028379
0.8400,280.000000,280.034526
0.8410,280.000000,280.042537
0.8420,280.000000,280.034054
0.8430,280.000000,280.035792
0.8440,280.000000,280.053856
0.8450,280.000000,280.040844
0.8460,280.000000,280.053968
0.8470,280.000000,280.039489
0.8480,280.000000,280.041228
0.8490,280.000000,280.050127
0.8500,280.000000,280.033748
0.8510,280.000000,280.029725
0.8520,280.000000,280.031908
0.8530,280.000000,280.035384
0.8540,280.000000,280.033309
0.8550,280.000000,280.032753
0.8560,280.000000,280.030648
0.8570,280.000000,280.046541
0.8580,280.000000,280.041108
0.8590,280.000000,280.031938
0.8600,280.000000,280.039225
0.8610,280.000000,280.041009
0.8620,280.000000,280.038035
0.8630,280.000000,280.049941
0.8640,280.000000,280.049236
0.8650,280.000000,280.045764
0.8660,280.000000,280.043651
0.8670,280.000549,280.040824
0.8680,280.000669,280.036110
0.8690,280.000812,280.042614
0.8700,280.000979,280.035168
0.8710,280.001175,280.039404
0.8720,280.001403,280.029953
0.8730,280.001667,280.021462
0.8740,280.001971,280.028447
0.8750,280.002319,280.022458
0.8760,280.002715,280.043020
0.8770,280.003162,280.047867
0.8780,280.003665,280.032175
0.8790,280.004226,280.031896
0.8800,280.004849,280.036041
0.8810,280.005536,280.043355
0.8820,280.006288,280.052895
0.8830,280.007108,280.043637
0.8840,280.007994,280.053235
0.8850,280.008946,280.051779
0.8860,280.009961,280.060007
0.8870,280.011036,280.057344
0.8880,280.012167,280.056757
0.8890,280.013346,280.050557
0.8900,280.014566,280.051691
0.8910,280.015819,280.052817
0.8920,280.017093,280.055309
0.8930,280.018379,280.049664
0.8940,280.019662,280.052808
0.8950,280.020930,280.053693
0.8960,280.022169,280.054423
0.8970,280.023364,280.050884
0.8980,280.024501,280.067152
0.8990,280.025564,280.060626
0.9000,280.026541,280.065514
0.9010,280.027418,280.059882
0.9020,280.028182,280.063972
0.9030,280.028824,280.071017
0.9040,280.029333,280.072119
0.9050,280.029701,280.065837
0.9060,280.029925,280.068751
0.9070,280.030000,280.076368
0.9080,280.029925,280.070615
0.9090,280.029701,280.074004
0.9100,280.029333,280.063268
0.9110,280.028824,280.058999
0.9120,280.028182,280.055441
0.9130,280.027418,280.051550
0.9140,280.026541,280.056293
0.9150,280.025564,280.056297
0.9160,280.024501,280.053094
0.9170,280.023364,280.058655
0.9180,280.022169,280.052957
0.9190,280.020930,280.052839
0.9200,280.019662,280.052552
0.9210,280.018379,280.060154
0.9220,280.017093,280.056967
0.9230,280.015819,280.059184
0.9240,280.014566,280.064503
0.9250,280.013346,280.068273
0.9260,280.012167,280.043246
0.9270,280.011036,280.057139
0.9280,280.009961,280.044661
0.9290,280.008946,280.048027
0.9300,280.007994,280.038910
0.9310,280.007108,280.035282
0.9320,280.006288,280.034517
0.9330,280.005536,280.034003
0.9340,280.004849,280.026494
0.9350,280.004226,280.032032
0.9360,280.003665,280.031743
0.9370,280.003162,280.039275
0.9380,280.002715,280.031632
0.9390,280.002319,280.037216
0.9400,280.001971,280.025615
0.9410,280.001667,280.042081
0.9420,280.001403,280.045032
0.9430,280.001175,280.043401
0.9440,280.000979,280.039909
0.9450,280.000812,280.048318
0.9460,280.000669,280.047050
0.9470,280.000000,280.046976
0.9480,280.000000,280.042846
0.9490,280.000000,280.028513
0.9500,280.000000,280.041218
0.9510,280.000000,280.033069
0.9520,280.000000,280.034452
0.9530,280.000000,280.030949
0.9540,280.000000,280.025244
0.9550,280.000000,280.027265
0.9560,280.000000,280.040017
0.9570,280.000000,280.029120
0.9580,280.000000,280.043826
0.9590,280.000000,280.038836
0.9600,280.000000,280.044683
0.9610,280.000000,280.035381
0.9620,280.000000,280.041654
0.9630,280.000000,280.045016
0.9640,280.000000,280.033154
0.9650,280.000000,280.040041
0.9660,280.000000,280.050851
0.9670,280.000000,280.039888
0.9680,279.993763,280.036306
0.9690,279.987798,280.023390
0.9700,279.982366,280.023815
0.9710,279.977706,280.013736
0.9720,279.974019,280.005247
0.9730,279.971468,280.003087
0.9740,279.970164,280.007603
0.9750,279.975659,280.011849
0.9760,279.981877,280.016038
0.9770,279.992672,280.027010
0.9780,280.009325,280.052813
0.9790,280.033070,280.073674
0.9800,280.064711,280.101916
0.9810,280.104126,280.146446
0.9820,280.149806,280.183819
0.9830,280.192354,280.233294
0.9840,280.233640,280.280619
0.9850,280.268452,280.319917
0.9860,280.291781,280.334739
0.9870,280.300000,280.353532
0.9880,280.291781,280.319039
0.9890,280.268452,280.296688
0.9900,280.233640,280.262942
0.9910,280.192354,280.234295
0.9920,280.149806,280.193301
0.9930,280.110364,280.144769
0.9940,280.076913,280.109696
0.9950,280.050704,280.093257
0.9960,280.031620,280.065480
0.9970,280.018653,280.050229
0.9980,280.010409,280.047595
0.9990,280.000000,280.038620
1.0000,280.000000,280.038747
1.0010,280.000000,280.042232
1.0020,280.000000,280.044221
1.0030,280.000000,280.045508
1.0040,280.000000,280.049614
1.0050,280.000000,280.047951
1.0060,280.000000,280.044609
1.0070,279.955000,279.992748
1.0080,279.961268,280.004207
1.0090,279.966663,280.014796
1.0100,279.971307,280.008053
1.0110,279.975303,280.009333
1.0120,279.978744,280.022933
1.0130,279.981704,280.017400
1.0140,279.984253,280.008392
1.0150,279.986446,280.010890
1.0160,279.988334,280.008746
1.0170,279.989959,280.021406
1.0180,279.991358,280.019631
1.0190,279.992562,280.025893
1.0200,279.993598,280.039604
1.0210,279.994489,280.030981
1.0220,279.995257,280.036341
1.0230,279.995918,280.040052
1.0240,279.996486,280.044252
1.0250,279.996976,280.044618
1.0260,279.997397,280.035538
1.0270,280.000000,280.048723
1.0280,280.000000,280.043548
1.0290,280.000000,280.033976
1.0300,280.000000,280.037772
1.0310,280.000000,280.028779
1.0320,280.000000,280.030423
1.0330,280.000000,280.029785
1.0340,280.000000,280.026215
1.0350,280.000000,280.031815
1.0360,280.000000,280.035059
1.0370,280.000000,280.037186
1.0380,280.000000,280.039355
1.0390,280.000000,280.043420
1.0400,280.000000,280.026122
1.0410,280.000000,280.053789
1.0420,280.000000,280.035042
1.0430,280.000000,280.028598
1.0440,280.000000,280.046870
1.0450,280.000000,280.047448
1.0460,280.000000,280.050218
1.0470,280.000000,280.049387
1.0480,280.000000,280.032379
1.0490,280.000000,280.042811
1.0500,280.000000,280.041836
1.0510,280.000000,280.040228
1.0520,280.000000,280.039587
1.0530,280.000000,280.030530
1.0540,280.000000,280.031020
1.0550,280.000000,280.034616
1.0560,280.000000,280.031139
1.0570,280.000000,280.034794
1.0580,280.000000,280.038773
1.0590,280.000000,280.042722
1.0600,280.000000,280.033479
1.0610,280.000000,280.041706
1.0620,280.000000,280.044181
1.0630,280.000000,280.042926
1.0640,280.000000,280.045945
1.0650,280.000000,280.051381
1.0660,280.000000,280.038873
1.0670,280.001648,280.038658
1.0680,280.001821,280.044022
1.0690,280.002008,280.038961
1.0700,280.002213,280.047236
1.0710,280.002435,280.040903
1.0720,280.002676,280.040461
1.0730,280.002937,280.036152
1.0740,280.003219,280.025952
1.0750,280.003525,280.037082
1.0760,280.003854,280.040337
1.0770,280.004209,280.033938
1.0780,280.004591,280.035203
1.0790,280.005002,280.031063
1.0800,280.005442,280.046589
1.0810,280.005914,280.050251
1.0820,280.006419,280.049856
1.0830,280.006957,280.047928
1.0840,280.007532,280.051225
1.0850,280.008144,280.045960
1.0860,280.008795,280.055963
1.0870,280.009486,280.055024
1.0880,280.010218,280.051177
1.0890,280.010994,280.050070
1.0900,280.011813,280.046495
1.0910,280.012677,280.046264
1.0920,280.013588,280.048145
1.0930,280.014546,280.055532
1.0940,280.015552,280.046692
1.0950,280.016607,280.046430
1.0960,280.017711,280.053824
1.0970,280.018865,280.048935
1.0980,280.020069,280.060141
1.0990,280.021323,280.063213
1.1000,280.022628,280.066803
1.1010,280.023982,280.063558
1.1020,280.025386,280.065824
1.1030,280.026838,280.074717
1.1040,280.028337,280.083949
1.1050,280.029884,280.063950
1.1060,280.031475,280.075293
1.1070,280.033109,280.077545
1.1080,280.034785,280.076221
1.1090,280.036500,280.073538
1.1100,280.038252,280.076958
1.1110,280.040037,280.081198
1.1120,280.041854,280.076241
1.1130,280.043698,280.074909
1.1140,280.045567,280.076875
1.1150,280.047456,280.076238
1.1160,280.049362,280.095256
1.1170,280.051280,280.080956
1.1180,280.053207,280.095836
1.1190,280.055136,280.096177
1.1200,280.057065,280.091910
1.1210,280.058987,280.106251
1.1220,280.060897,280.103267
1.1230,280.062791,280.098795
1.1240,280.064663,280.104097
1.1250,280.066507,280.120775
1.1260,280.068319,280.112122
1.1270,280.070092,280.117548
1.1280,280.071822,280.111273
1.1290,280.073502,280.112061
1.1300,280.075127,280.117370
1.1310,280.076693,280.115993
1.1320,280.078193,280.113167
1.1330,280.079624,280.107096
1.1340,280.080979,280.123691
1.1350,280.082254,280.110032
1.1360,280.083445,280.124853
1.1370,280.084547,280.120515
1.1380,280.085557,280.118490
1.1390,280.086471,280.124309
1.1400,280.087286,280.132974
1.1410,280.087998,280.134007
1.1420,280.088605,280.125955
1.1430,280.089104,280.130125
1.1440,280.089495,280.130748
1.1450,280.089775,280.138040
1.1460,280.089944,280.139535
1.1470,280.090000,280.127411
1.1480,280.089944,280.133223
1.1490,280.089775,280.136690
1.1500,280.089495,280.132307
1.1510,280.089104,280.131017
1.1520,280.088605,280.120254
1.1530,280.087998,280.127478
1.1540,280.087286,280.118572
1.1550,280.086471,280.125192
1.1560,280.085557,280.113659
1.1570,280.084547,280.110576
1.1580,280.083445,280.129428
1.1590,280.082254,280.130289
1.1600,280.080979,280.117395
1.1610,280.079624,280.107110
1.1620,280.078193,280.112679
1.1630,280.076693,280.116096
1.1640,280.075127,280.112043
1.1650,280.073502,280.116933
1.1660,280.071822,280.117334
1.1670,280.070092,280.109293
1.1680,280.068319,280.104334
1.1690,280.066507,280.103252
1.1700,280.064663,280.100068
1.1710,280.062791,280.101157
1.1720,280.060897,280.095238
1.1730,280.058987,280.089308
1.1740,280.057065,280.089271
1.1750,280.055136,280.091882
1.1760,280.053207,280.098395
1.1770,280.051280,280.078647
1.1780,280.049362,280.083780
1.1790,280.047456,280.084994
1.1800,280.045567,280.092407
1.1810,280.043698,280.081994
1.1820,280.041854,280.086644
1.1830,280.040037,280.091862
1.1840,280.038252,280.082404
1.1850,280.036500,280.073980
1.1860,280.034785,280.088561
1.1870,280.033109,280.073368
1.1880,280.031475,280.079487
1.1890,280.029884,280.074743
1.1900,280.028337,280.059330
1.1910,280.026838,280.062248
1.1920,280.025386,280.063042
1.1930,280.023982,280.059761
1.1940,280.022628,280.047739
1.1950,280.021323,280.059186
1.1960,280.020069,280.053539
1.1970,280.018865,280.061912
1.1980,280.017711,280.058743
1.1990,280.016607,280.052364
1.2000,280.015552,280.043443
1.2010,280.014546,280.054923
1.2020,280.013588,280.052815
1.2030,280.012677,280.058687
1.2040,280.011813,280.060111
1.2050,280.010994,280.062892
1.2060,280.010218,280.055555
1.2070,280.009486,280.053002
1.2080,280.008795,280.049026
1.2090,280.008144,280.043057
1.2100,280.007532,280.052098
1.2110,280.006957,280.042849
1.2120,280.006419,280.035556
1.2130,280.005914,280.034292
1.2140,280.005442,280.037318
1.2150,280.005002,280.040191
1.2160,280.004591,280.042980
1.2170,280.004209,280.046639
1.2180,280.003854,280.037539
1.2190,280.003525,280.035982
1.2200,280.003219,280.045154
1.2210,280.002937,280.041582
1.2220,280.002676,280.046256
1.2230,280.002435,280.044939
1.2240,280.002213,280.045537
1.2250,280.002008,280.032654
1.2260,280.001821,280.048100
1.2270,280.000000,280.036560
1.2280,280.000000,280.036171
1.2290,280.000000,280.024506
1.2300,280.000000,280.027360
1.2310,280.000000,280.039926
1.2320,280.000000,280.034877
1.2330,280.000000,280.030016
1.2340,280.000000,280.031589
1.2350,280.000000,280.025548
1.2360,280.000000,280.034430
1.2370,280.000000,280.035613
1.2380,280.000000,280.037536
1.2390,280.000000,280.038089
1.2400,280.000000,280.026765
1.2410,280.000000,280.033925
1.2420,280.000000,280.045148
1.2430,280.000000,280.049110
1.2440,280.000000,280.052292
1.2450,280.000000,280.051285
1.2460,280.000000,280.035958
1.2470,280.000000,280.046016
1.2480,280.000000,280.033183
1.2490,280.000000,280.041583
1.2500,280.000000,280.038551
1.2510,280.000000,280.031416
1.2520,280.000000,280.029310
1.2530,280.000000,280.029911
1.2540,280.000000,280.034744
1.2550,280.000000,280.037387
1.2560,280.000000,280.033514
1.2570,280.000000,280.044871
1.2580,280.000000,280.025646
1.2590,280.000000,280.045107
1.2600,280.000000,280.042963
1.2610,280.000000,280.040701
1.2620,280.000000,280.053359
1.2630,280.000000,280.036800
1.2640,280.000000,280.036397
1.2650,280.000000,280.049722
1.2660,280.000000,280.040460
1.2670,280.000000,280.038201
1.2680,280.000000,280.041294
1.2690,280.000000,280.035662
1.2700,280.000000,280.035130
1.2710,280.000000,280.035007
1.2720,280.000000,280.031803
1.2730,280.000000,280.032696
1.2740,280.000000,280.030670
1.2750,280.000000,280.030926
1.2760,280.000000,280.032151
1.2770,280.000000,280.030994
1.2780,280.000000,280.037796
1.2790,280.000000,280.031924
1.2800,280.000000,280.040920
1.2810,280.000000,280.040064
1.2820,280.000000,280.035889
1.2830,280.000000,280.043499
1.2840,280.000000,280.046805
1.2850,280.000000,280.042984
1.2860,280.000000,280.035291
1.2870,280.000000,280.043411
1.2880,280.000000,280.043830
1.2890,280.000000,280.039620
1.2900,280.000000,280.028879
1.2910,280.000000,280.034906
1.2920,280.000000,280.032311
1.2930,280.000000,280.026668
1.2940,280.000000,280.036718
1.2950,280.000000,280.038076
1.2960,280.000000,280.026687
1.2970,280.000000,280.037399
1.2980,280.000000,280.035227
1.2990,280.000000,280.033632
1.3000,280.000000,280.043345
1.3010,280.000000,280.038327
1.3020,280.000000,280.040145
1.3030,280.000000,280.038320
1.3040,280.000000,280.041489
1.3050,280.000000,280.044313
1.3060,280.000000,280.043603
1.3070,280.000000,280.041654
1.3080,280.000000,280.038299
1.3090,280.000000,280.038783
1.3100,280.000000,280.035179
1.3110,280.000000,280.041673
1.3120,280.000000,280.030889
1.3130,280.000000,280.024650
1.3140,280.000000,280.024971
1.3150,280.000000,280.039032
1.3160,280.000000,280.036021
1.3170,280.000000,280.028655
1.3180,280.000000,280.033605
1.3190,280.000000,280.031155
1.3200,280.000000,280.036157
1.3210,280.000000,280.047499
1.3220,280.000000,280.046684
1.3230,280.000000,280.042250
1.3240,280.000000,280.030347
1.3250,280.000000,280.044204
1.3260,280.000000,280.043386
1.3270,280.000000,280.041589
1.3280,280.000000,280.036101
1.3290,280.000000,280.044861
1.3300,280.000000,280.034323
1.3310,280.000000,280.038770
1.3320,280.000000,280.035962
1.3330,280.000000,280.030689
1.3340,280.000000,280.036317
1.3350,280.000000,280.026648
1.3360,280.000000,280.031986
1.3370,280.000000,280.041456
1.3380,280.000000,280.028265
1.3390,280.000000,280.034753
1.3400,280.000000,280.038930
1.3410,280.000000,280.040467
1.3420,280.000000,280.042477
1.3430,280.000000,280.037309
1.3440,280.000000,280.043102
1.3450,280.000000,280.040337
1.3460,280.000000,280.052296
1.3470,280.000000,280.041560
1.3480,280.000000,280.031375
1.3490,280.000000,280.040749
1.3500,280.000000,280.043132
1.3510,280.000000,280.036092
1.3520,280.000000,280.030174
1.3530,280.000000,280.028971
1.3540,280.000000,280.032266
1.3550,280.000000,280.036528
1.3560,280.000000,280.035732
1.3570,280.000000,280.032548
1.3580,280.000000,280.028606
1.3590,280.000000,280.034775
1.3600,280.000000,280.037735
1.3610,280.000000,280.036654
1.3620,280.000000,280.031930
1.3630,280.000000,280.044337
1.3640,280.000000,280.047785
1.3650,280.000000,280.052847
1.3660,280.000000,280.039014
1.3670,280.000000,280.036935
1.3680,280.000000,280.040559
1.3690,280.000000,280.041390
1.3700,280.000000,280.034687
1.3710,280.000000,280.033577
1.3720,280.000000,280.043157
1.3730,280.000000,280.023291
1.3740,280.000000,280.028144
1.3750,280.000000,280.024912
1.3760,280.000000,280.029696
1.3770,280.000000,280.023589
1.3780,280.000000,280.044256
1.3790,280.000000,280.032440
1.3800,280.000000,280.040113
1.3810,280.000000,280.048280
1.3820,280.000000,280.043430
1.3830,280.000000,280.041116
1.3840,280.000000,280.043034
1.3850,280.000000,280.039110
1.3860,280.000000,280.040205
1.3870,280.000000,280.052024
1.3880,280.000000,280.042985
1.3890,280.000000,280.035456
1.3900,280.000000,280.046538
1.3910,280.000000,280.033576
1.3920,280.000000,280.038827
1.3930,280.000000,280.035048
1.3940,280.000000,280.029966
1.3950,280.000000,280.027291
1.3960,280.000000,280.033944
1.3970,280.000000,280.040633
1.3980,280.000000,280.031411
1.3990,280.000000,280.038405
1.4000,280.000000,280.031663
1.4010,280.000000,280.040989
1.4020,280.000000,280.042778
1.4030,280.000000,280.039847
1.4040,280.000000,280.038538
1.4050,280.000000,280.045351
1.4060,280.000000,280.046845
1.4070,280.000000,280.042928
1.4080,280.000000,280.042896
1.4090,280.000000,280.047296
1.4100,280.000000,280.041602
1.4110,280.000000,280.028623
1.4120,280.000000,280.032327
1.4130,280.000000,280.029021
1.4140,280.000000,280.028723
1.4150,280.000000,280.028768
1.4160,280.000000,280.037680
1.4170,280.000000,280.024038
1.4180,280.000000,280.029115
1.4190,280.000000,280.032982
1.4200,280.000000,280.030605
1.4210,280.000000,280.032745
1.4220,280.000000,280.036325
1.4230,280.000000,280.043326
1.4240,280.000000,280.039742
1.4250,280.000000,280.045947
1.4260,280.000000,280.039689
1.4270,280.000000,280.041905
1.4280,280.000000,280.043835
1.4290,280.000000,280.040334
1.4300,280.000000,280.033545
1.4310,280.000000,280.033965
1.4320,280.000000,280.034770
1.4330,280.000000,280.032212
1.4340,280.000000,280.034570
1.4350,280.000000,280.027176
1.4360,280.000000,280.032834
1.4370,280.000000,280.033470
1.4380,280.000000,280.029555
1.4390,280.000000,280.036396
1.4400,280.000000,280.037194
1.4410,280.000000,280.037750
1.4420,280.000000,280.037544
1.4430,280.000000,280.030650
1.4440,280.000000,280.037547
1.4450,280.000000,280.039290
1.4460,280.000000,280.045377
1.4470,280.000000,280.033461
1.4480,280.000000,280.035739
1.4490,280.000000,280.037571
1.4500,280.000000,280.036630
1.4510,280.000000,280.026409
1.4520,280.000000,280.044662
1.4530,280.000000,280.039339
1.4540,280.000000,280.028467
1.4550,280.000000,280.029921
1.4560,280.000000,280.030525
1.4570,280.000000,280.021770
1.4580,280.000000,280.032556
1.4590,280.000000,280.034939
1.4600,280.000000,280.036816
1.4610,280.000000,280.040484
1.4620,280.000000,280.033361
1.4630,280.000000,280.032599
1.4640,280.000000,280.042179
1.4650,280.000000,280.046144
1.4660,280.000000,280.036043
1.4670,280.000000,280.040561
1.4680,280.000000,280.040681
1.4690,280.000000,280.037008
1.4700,280.000000,280.037129
1.4710,280.000000,280.028805
1.4720,280.000000,280.026503
1.4730,280.000000,280.030026
1.4740,280.000000,280.043911
1.4750,280.000000,280.029784
1.4760,280.000000,280.035237
1.4770,280.000000,280.025420
1.4780,280.000000,280.027631
1.4790,280.000000,280.029147
1.4800,280.000000,280.032543
1.4810,280.000000,280.029493
1.4820,280.000000,280.041104
1.4830,280.000000,280.042838
1.4840,280.000000,280.039469
1.4850,280.000000,280.040848
1.4860,280.000000,280.045765
1.4870,280.000000,280.041027
1.4880,280.000000,280.031792
1.4890,280.000000,280.034178
1.4900,280.000000,280.036082
1.4910,280.000000,280.033858
1.4920,280.000000,280.037013
1.4930,280.000000,280.025436
1.4940,280.000000,280.028370
1.4950,280.000000,280.027791
1.4960,280.000000,280.021931
1.4970,280.000000,280.035422
1.4980,280.000000,280.047697
1.4990,280.000000,280.023101
1.5000,280.000000,280.035379
1.5010,280.000000,280.028536
1.5020,280.000000,280.044260
1.5030,280.000000,280.029396
1.5040,280.000000,280.038792
1.5050,280.000000,280.042719
1.5060,280.000000,280.046171
1.5070,280.000000,280.037867
1.5080,280.000000,280.034047
1.5090,280.000000,280.033428
1.5100,280.000000,280.029935
1.5110,280.000000,280.034770
1.5120,280.000000,280.027757
1.5130,280.000000,280.025033
1.5140,280.000000,280.022106
1.5150,280.000000,280.026566
1.5160,280.000000,280.027802
1.5170,280.000000,280.021578
1.5180,280.000000,280.027031
1.5190,280.000000,280.024747
1.5200,280.000000,280.035197
1.5210,280.000000,280.039647
1.5220,280.000000,280.041909
1.5230,280.000000,280.037497
1.5240,280.000000,280.037452
1.5250,280.000000,280.033564
1.5260,280.000000,280.037242
1.5270,280.000000,280.045784
1.5280,280.000000,280.035156
1.5290,280.000000,280.037269
1.5300,280.000000,280.039533
1.5310,280.000000,280.040365
1.5320,280.000000,280.032126
1.5330,280.000000,280.027350
1.5340,280.000000,280.031967
1.5350,280.000000,280.032320
1.5360,280.000000,280.021545
1.5370,280.000000,280.026970
1.5380,280.000000,280.025783
1.5390,280.000000,280.026444
1.5400,280.000000,280.044710
1.5410,280.000000,280.021734
1.5420,280.000000,280.033953
1.5430,280.000000,280.040154
1.5440,280.000000,280.042237
1.5450,280.000000,280.039998
1.5460,280.000000,280.039380
1.5470,280.000000,280.031128
1.5480,280.000000,280.031973
1.5490,280.000000,280.036762
1.5500,280.000000,280.037044
1.5510,280.000000,280.032219
1.5520,280.000000,280.031766
1.5530,280.000000,280.038235
1.5540,280.000000,280.024982
1.5550,280.000000,280.028473
1.5560,280.000000,280.030055
1.5570,280.000000,280.030573
1.5580,280.000000,280.028990
1.5590,280.000000,280.035622
1.5600,280.000000,280.036064
1.5610,280.000000,280.036713
1.5620,280.000000,280.031242
1.5630,280.000000,280.039763
1.5640,280.000000,280.043967
1.5650,280.000000,280.043444
1.5660,280.000000,280.029243
1.5670,280.000000,280.040634
1.5680,280.000000,280.039985
1.5690,280.000000,280.033020
1.5700,280.000000,280.038347
1.5710,280.000000,280.025299
1.5720,280.000000,280.030038
1.5730,280.000000,280.024373
1.5740,280.000000,280.026694
1.5750,280.000000,280.025466
1.5760,280.000000,280.028270
1.5770,280.000000,280.030065
1.5780,280.000000,280.032127
1.5790,280.000000,280.024279
1.5800,280.000000,280.031778
1.5810,280.000000,280.033199
1.5820,280.000000,280.037132
1.5830,280.000000,280.034427
1.5840,280.000000,280.034896
1.5850,280.000000,280.034148
1.5860,280.000000,280.030234
1.5870,280.000000,280.036727
1.5880,280.000000,280.032122
1.5890,280.000000,280.038982
1.5900,280.000000,280.030668
1.5910,280.000000,280.024396
1.5920,280.000000,280.018517
1.5930,280.000000,280.033165
1.5940,280.000000,280.029055
1.5950,280.000000,280.028977
1.5960,280.000000,280.030284
1.5970,280.000000,280.030662
1.5980,280.000000,280.028271
1.5990,280.000000,280.022552
1.6000,280.000000,280.021550
1.6010,280.000000,280.031581
1.6020,280.000000,280.039872
1.6030,280.000000,280.029965
1.6040,280.000000,280.034879
1.6050,280.000000,280.037817
1.6060,280.000000,280.035026
1.6070,280.000000,280.036847
1.6080,280.000000,280.036815
1.6090,280.000000,280.029731
1.6100,280.000000,280.037225
1.6110,280.000000,280.029186
1.6120,280.000000,280.026856
1.6130,280.000000,280.026334
1.6140,280.000000,280.024956
1.6150,280.000000,280.029397
1.6160,280.000000,280.024874
1.6170,280.000000,280.025840
1.6180,280.000000,280.033476
1.6190,280.000000,280.029617
1.6200,280.000000,280.036136
1.6210,280.000000,280.040102
1.6220,280.000000,280.040963
1.6230,280.000000,280.040734
1.6240,280.000000,280.034275
1.6250,280.000000,280.039499
1.6260,280.000000,280.029248
1.6270,280.000000,280.019917
1.6280,280.000000,280.037178
1.6290,280.000000,280.025636
1.6300,280.000000,280.025302
1.6310,280.000000,280.031713
1.6320,280.000000,280.017175
1.6330,280.000000,280.023584
1.6340,280.000000,280.021734
1.6350,280.000000,280.027348
1.6360,280.000000,280.023883
1.6370,280.000000,280.027838
1.6380,280.000000,280.033091
1.6390,280.000000,280.032831
1.6400,280.000000,280.024569
1.6410,280.000000,280.029723
1.6420,280.000000,280.039498
1.6430,280.000000,280.040603
1.6440,280.000000,280.034334
1.6450,280.000000,280.038593
1.6460,280.000000,280.034592
1.6470,280.000000,280.036248
1.6480,280.000000,280.037425
1.6490,280.000000,280.032898
1.6500,280.000000,280.030930
1.6510,280.000000,280.025864
1.6520,280.000000,280.025159
1.6530,280.000000,280.028033
1.6540,280.000000,280.020514
1.6550,280.000000,280.016548
1.6560,280.000000,280.025933
1.6570,280.000000,280.030132
1.6580,280.000000,280.033180
1.6590,280.000000,280.026993
1.6600,280.000000,280.029952
1.6610,280.000000,280.029526
1.6620,280.000000,280.036621
1.6630,280.000000,280.034820
1.6640,280.000000,280.039623
1.6650,280.000000,280.040370
1.6660,280.000000,280.039161
1.6670,280.000000,280.025862
1.6680,280.000000,280.037345
1.6690,280.000000,280.031722
1.6700,280.000000,280.024780
1.6710,280.000000,280.029329
1.6720,280.000000,280.026626
1.6730,280.000000,280.020829
1.6740,280.000000,280.023484
1.6750,280.000000,280.029085
1.6760,280.000000,280.028968
1.6770,280.000000,280.025363
1.6780,280.000000,280.027531
1.6790,280.000000,280.028288
1.6800,280.000000,280.021033
1.6810,280.000000,280.029534
1.6820,280.000000,280.044026
1.6830,280.000000,280.036365
1.6840,280.000000,280.041195
1.6850,280.000000,280.020552
1.6860,280.000000,280.033077
1.6870,280.000000,280.036118
1.6880,280.000000,280.028108
1.6890,280.000000,280.033215
1.6900,280.000000,280.025934
1.6910,280.000000,280.024312
1.6920,280.000000,280.026751
1.6930,280.000000,280.027151
1.6940,280.000000,280.020170
1.6950,280.000000,280.021816
1.6960,280.000000,280.027555
1.6970,280.000000,280.015613
1.6980,280.000000,280.023725
1.6990,280.000000,280.026642
1.7000,280.000000,280.028122
1.7010,280.000000,280.020149
1.7020,280.000000,280.031180
1.7030,280.000000,280.044410
1.7040,280.000000,280.033291
1.7050,280.000000,280.033011
1.7060,280.000000,280.024940
1.7070,280.000549,280.031230
1.7080,280.000669,280.035071
1.7090,280.000812,280.034624
1.7100,280.000979,280.030931
1.7110,280.001175,280.026429
1.7120,280.001403,280.027575
1.7130,280.001667,280.018387
1.7140,280.001971,280.028558
1.7150,280.002319,280.024649
1.7160,280.002715,280.027694
1.7170,280.003162,280.024962
1.7180,280.003665,280.023674
1.7190,280.004226,280.034752
1.7200,280.004849,280.030561
1.7210,280.005536,280.029073
1.7220,280.006288,280.042391
1.7230,280.007108,280.038011
1.7240,280.007994,280.044011
1.7250,280.008946,280.042488
1.7260,280.009961,280.043384
1.7270,280.011036,280.041453
1.7280,280.012167,280.044448
1.7290,280.013346,280.038634
1.7300,280.014566,280.045993
1.7310,280.015819,280.047929
1.7320,280.017093,280.049434
1.7330,280.018379,280.053058
1.7340,280.019662,280.050471
1.7350,280.020930,280.041079
1.7360,280.022169,280.043651
1.7370,280.023364,280.042429
1.7380,280.024501,280.051471
1.7390,280.025564,280.047499
1.7400,280.026541,280.057043
1.7410,280.027418,280.054005
1.7420,280.028182,280.060443
1.7430,280.028824,280.066002
1.7440,280.029333,280.063759
1.7450,280.029701,280.067551
1.7460,280.029925,280.065514
1.7470,280.030000,280.061814
1.7480,280.029925,280.053953
1.7490,280.029701,280.058637
1.7500,280.029333,280.060471
1.7510,280.028824,280.049142
1.7520,280.028182,280.062902
1.7530,280.027418,280.053572
1.7540,280.026541,280.048766
1.7550,280.025564,280.038950
1.7560,280.024501,280.045938
1.7570,280.023364,280.040023
1.7580,280.022169,280.046902
1.7590,280.020930,280.048918
1.7600,280.019662,280.054385
1.7610,280.018379,280.054824
1.7620,280.017093,280.044830
1.7630,280.015819,280.044287
1.7640,280.014566,280.049571
1.7650,280.013346,280.046292
1.7660,280.012167,280.043367
1.7670,280.011036,280.037729
1.7680,280.009961,280.046548
1.7690,280.008946,280.032722
1.7700,280.007994,280.038976
1.7710,280.007108,280.015009
1.7720,280.006288,280.030502
1.7730,280.005536,280.032534
1.7740,280.004849,280.032307
1.7750,280.004226,280.018146
1.7760,280.003665,280.023255
1.7770,280.003162,280.028889
1.7780,280.002715,280.032001
1.7790,280.002319,280.026876
1.7800,280.001971,280.024737
1.7810,280.001667,280.034146
1.7820,280.001403,280.032387
1.7830,280.001175,280.030635
1.7840,280.000979,280.037521
1.7850,280.000812,280.032066
1.7860,280.000669,280.037020
1.7870,280.000000,280.029436
1.7880,280.000000,280.032627
1.7890,280.000000,280.040799
1.7900,280.000000,280.022859
1.7910,280.000000,280.010441
1.7920,280.000000,280.021744
1.7930,280.000000,280.027768
1.7940,280.000000,280.020705
1.7950,280.000000,280.015505
1.7960,280.000000,280.039499
1.7970,280.000000,280.017495
1.7980,280.000000,280.022188
1.7990,280.000000,280.015673
1.8000,280.000000,280.026363
1.8010,280.000000,280.021648
1.8020,280.000000,280.037263
1.8030,280.000000,280.025799
1.8040,280.000000,280.032548
1.8050,280.000000,280.033033
1.8060,280.000000,280.032623
1.8070,280.000000,280.034607
1.8080,279.993763,280.026871
1.8090,279.987798,280.015190
1.8100,279.982366,280.001417
1.8110,279.977706,279.996779
1.8120,279.974019,279.995255
1.8130,279.971468,279.993021
1.8140,279.970164,279.985063
1.8150,279.975659,279.988792
1.8160,279.981877,280.017821
1.8170,279.992672,280.010691
1.8180,280.009325,280.031272
1.8190,280.033070,280.061456
1.8200,280.064711,280.092250
1.8210,280.104126,280.128260
1.8220,280.149806,280.181960
1.8230,280.192354,280.228751
1.8240,280.233640,280.261709
1.8250,280.268452,280.305675
1.8260,280.291781,280.325981
1.8270,280.300000,280.328756
1.8280,280.291781,280.318797
1.8290,280.268452,280.306809
1.8300,280.233640,280.263311
1.8310,280.192354,280.212833
1.8320,280.149806,280.167238
1.8330,280.110364,280.122994
1.8340,280.076913,280.090596
1.8350,280.050704,280.072739
1.8360,280.031620,280.052835
1.8370,280.018653,280.035808
1.8380,280.010409,280.033033
1.8390,280.000000,280.011842
1.8400,280.000000,280.029604
1.8410,280.000000,280.034665
1.8420,280.000000,280.032144
1.8430,280.000000,280.030973
1.8440,280.000000,280.033505
1.8450,280.000000,280.018016
1.8460,280.000000,280.032920
1.8470,279.955000,279.979734
1.8480,279.961268,279.995639
1.8490,279.966663,279.998012
1.8500,279.971307,280.000232
1.8510,279.975303,279.995054
1.8520,279.978744,279.995038
1.8530,279.981704,280.004652
1.8540,279.984253,279.999957
1.8550,279.986446,280.000257
1.8560,279.988334,280.000051
1.8570,279.989959,280.018431
1.8580,279.991358,280.008640
1.8590,279.992562,280.018956
1.8600,279.993598,280.015903
1.8610,279.994489,280.018342
1.8620,279.995257,280.029063
1.8630,279.995918,280.026525
1.8640,279.996486,280.028584
1.8650,279.996976,280.030857
1.8660,279.997397,280.030933
1.8670,280.000000,280.026508
1.8680,280.000000,280.025874
1.8690,280.000000,280.030996
1.8700,280.000000,280.033092
1.8710,280.000000,280.020448
1.8720,280.000000,280.030670
1.8730,280.000000,280.019163
1.8740,280.000000,280.017670
1.8750,280.000000,280.025007
1.8760,280.000000,280.014915
1.8770,280.000000,280.023926
1.8780,280.000000,280.026013
1.8790,280.000000,280.028492
1.8800,280.000000,280.021276
1.8810,280.000000,280.027674
1.8820,280.000000,280.033237
1.8830,280.000000,280.028431
1.8840,280.000000,280.031230
1.8850,280.000000,280.023821
1.8860,280.000000,280.026869
1.8870,280.000000,280.022057
1.8880,280.000000,280.027306
1.8890,280.000000,280.027290
1.8900,280.000000,280.037499
1.8910,280.000000,280.010609
1.8920,280.000000,280.019799
1.8930,280.000000,280.017320
1.8940,280.000000,280.007318
1.8950,280.000000,280.014776
1.8960,280.000000,280.012424
1.8970,280.000000,280.019637
1.8980,280.000000,280.018675
1.8990,280.000000,280.015221
1.9000,280.000000,280.023853
1.9010,280.000000,280.038121
1.9020,280.000000,280.023748
1.9030,280.000000,280.031987
1.9040,280.000000,280.034635
1.9050,280.000000,280.028069
1.9060,280.000000,280.027367
1.9070,280.001648,280.040756
1.9080,280.001821,280.038494
1.9090,280.002008,280.034117
1.9100,280.002213,280.021166
1.9110,280.002435,280.018339
1.9120,280.002676,280.013710
1.9130,280.002937,280.014985
1.9140,280.003219,280.011325
1.9150,280.003525,280.022756
1.9160,280.003854,280.014340
1.9170,280.004209,280.016723
1.9180,280.004591,280.017569
1.9190,280.005002,280.023827
1.9200,280.005442,280.039940
1.9210,280.005914,280.030968
1.9220,280.006419,280.021221
1.9230,280.006957,280.032189
1.9240,280.007532,280.028280
1.9250,280.008144,280.029857
1.9260,280.008795,280.033620
1.9270,280.009486,280.038868
1.9280,280.010218,280.039072
1.9290,280.010994,280.039013
1.9300,280.011813,280.028607
1.9310,280.012677,280.037153
1.9320,280.013588,280.029188
1.9330,280.014546,280.035391
1.9340,280.015552,280.032344
1.9350,280.016607,280.041018
1.9360,280.017711,280.030251
1.9370,280.018865,280.035087
1.9380,280.020069,280.044948
1.9390,280.021323,280.041363
1.9400,280.022628,280.040945
1.9410,280.023982,280.046536
1.9420,280.025386,280.059292
1.9430,280.026838,280.045897
1.9440,280.028337,280.054233
1.9450,280.029884,280.061866
1.9460,280.031475,280.058608
1.9470,280.033109,280.067251
1.9480,280.034785,280.057189
1.9490,280.036500,280.061716
1.9500,280.038252,280.066740
1.9510,280.040037,280.065021
1.9520,280.041854,280.051977
1.9530,280.043698,280.066439
1.9540,280.045567,280.061268
1.9550,280.047456,280.058568
1.9560,280.049362,280.061690
1.9570,280.051280,280.063744
1.9580,280.053207,280.066119
1.9590,280.055136,280.080284
1.9600,280.057065,280.088092
1.9610,280.058987,280.082152
1.9620,280.060897,280.092943
1.9630,280.062791,280.094629
1.9640,280.064663,280.085769
1.9650,280.066507,280.092258
1.9660,280.068319,280.100600
1.9670,280.070092,280.101319
1.9680,280.071822,280.091366
1.9690,280.073502,280.089458
1.9700,280.075127,280.099573
1.9710,280.076693,280.092084
1.9720,280.078193,280.095261
1.9730,280.079624,280.092894
1.9740,280.080979,280.092709
1.9750,280.082254,280.096586
1.9760,280.083445,280.100924
1.9770,280.084547,280.111337
1.9780,280.085557,280.097677
1.9790,280.086471,280.101677
1.9800,280.087286,280.104793
1.9810,280.087998,280.112205
1.9820,280.088605,280.107901
1.9830,280.089104,280.116223
1.9840,280.089495,280.105029
1.9850,280.089775,280.110204
1.9860,280.089944,280.115008
1.9870,280.090000,280.110981
1.9880,280.089944,280.117707
1.9890,280.089775,280.110556
1.9900,280.089495,280.105704
1.9910,280.089104,280.106398
1.9920,280.088605,280.107629
1.9930,280.087998,280.108847
1.9940,280.087286,280.104789
1.9950,280.086471,280.103070
1.9960,280.085557,280.107674
1.9970,280.084547,280.091701
1.9980,280.083445,280.100278
1.9990,280.082254,280.099385
2.0000,280.080979,280.101888
2.0010,280.079624,280.099008
2.0020,280.078193,280.100701
2.0030,280.076693,280.104535
2.0040,280.075127,280.104907
2.0050,280.073502,280.097880
2.0060,280.071822,280.090372
2.0070,280.070092,280.100489
2.0080,280.068319,280.088091
2.0090,280.066507,280.081513
2.0100,280.064663,280.085834
2.0110,280.062791,280.082230
2.0120,280.060897,280.083611
2.0130,280.058987,280.072113
2.0140,280.057065,280.071960
2.0150,280.055136,280.070251
2.0160,280.053207,280.064921
2.0170,280.051280,280.063621
2.0180,280.049362,280.071266
2.0190,280.047456,280.062204
2.0200,280.045567,280.061779
2.0210,280.043698,280.071635
2.0220,280.041854,280.057452
2.0230,280.040037,280.067454
2.0240,280.038252,280.068326
2.0250,280.036500,280.055126
2.0260,280.034785,280.056048
2.0270,280.033109,280.054689
2.0280,280.031475,280.061290
2.0290,280.029884,280.053517
2.0300,280.028337,280.053411
2.0310,280.026838,280.048721
2.0320,280.025386,280.037954
2.0330,280.023982,280.045429
2.0340,280.022628,280.031001
2.0350,280.021323,280.033564
2.0360,280.020069,280.032341
2.0370,280.018865,280.033165
2.0380,280.017711,280.041142
2.0390,280.016607,280.028816
2.0400,280.015552,280.034082
2.0410,280.014546,280.035864
2.0420,280.013588,280.035300
2.0430,280.012677,280.036267
2.0440,280.011813,280.024629
2.0450,280.010994,280.035413
2.0460,280.010218,280.036345
2.0470,280.009486,280.031774
2.0480,280.008795,280.032560
2.0490,280.008144,280.026740
2.0500,280.007532,280.022017
2.0510,280.006957,280.021635
2.0520,280.006419,280.024784
2.0530,280.005914,280.015889
2.0540,280.005442,280.022891
2.0550,280.005002,280.024375
2.0560,280.004591,280.016404
2.0570,280.004209,280.008521
2.0580,280.003854,280.027629
2.0590,280.003525,280.029509
2.0600,280.003219,280.022652
2.0610,280.002937,280.030907
2.0620,280.002676,280.021552
2.0630,280.002435,280.027120
2.0640,280.002213,280.021484
2.0650,280.002008,280.030385
2.0660,280.001821,280.026889
2.0670,280.000000,280.017032
2.0680,280.000000,280.016514
2.0690,280.000000,280.014385
2.0700,280.000000,280.020510
2.0710,280.000000,280.016364
2.0720,280.000000,280.015423
2.0730,280.000000,280.014802
2.0740,280.000000,280.012847
2.0750,280.000000,280.014469
2.0760,280.000000,280.012026
2.0770,280.000000,280.008191
2.0780,280.000000,280.006984
2.0790,280.000000,280.017721
2.0800,280.000000,280.023879
2.0810,280.000000,280.018186
2.0820,280.000000,280.035062
2.0830,280.000000,280.020686
2.0840,280.000000,280.034724
2.0850,280.000000,280.022850
2.0860,280.000000,280.028722
2.0870,280.000000,280.019711
2.0880,280.000000,280.017392
2.0890,280.000000,280.020191
2.0900,280.000000,280.019965
2.0910,280.000000,280.014716
2.0920,280.000000,280.006708
2.0930,280.000000,280.014503
2.0940,280.000000,280.022275
2.0950,280.000000,280.010793
2.0960,280.000000,280.012498
2.0970,280.000000,280.003546
2.0980,280.000000,280.020373
2.0990,280.000000,280.016711
2.1000,280.000000,280.021847
2.1010,280.000000,280.016573
2.1020,280.000000,280.021196
2.1030,280.000000,280.019343
2.1040,280.000000,280.011069
2.1050,280.000000,280.022465
2.1060,280.000000,280.022113
2.1070,280.000000,280.025369
2.1080,280.000000,280.013156
2.1090,280.000000,280.017133
2.1100,280.000000,280.013490
2.1110,280.000000,280.002028
2.1120,280.000000,280.011151
2.1130,280.000000,280.016068
2.1140,280.000000,280.006928
2.1150,280.000000,280.011036
2.1160,280.000000,280.012026
2.1170,280.000000,280.012009
2.1180,280.000000,280.009869
2.1190,280.000000,280.016047
2.1200,280.000000,280.015933
2.1210,280.000000,280.012650
2.1220,280.000000,280.021384
2.1230,280.000000,280.025412
2.1240,280.000000,280.017980
2.1250,280.000000,280.024827
2.1260,280.000000,280.031865
2.1270,280.000000,280.026241
2.1280,280.000000,280.022219
2.1290,280.000000,280.019638
2.1300,280.000000,280.012470
2.1310,280.000000,280.010842
2.1320,280.000000,280.014277
2.1330,280.000000,280.010963
2.1340,280.000000,280.018825
2.1350,280.000000,280.003614
2.1360,280.000000,280.005033
2.1370,280.000000,280.003549
2.1380,280.000000,280.019538
2.1390,280.000000,280.005248
2.1400,280.000000,280.014241
2.1410,280.000000,280.014372
2.1420,280.000000,280.006931
2.1430,280.000000,280.013129
2.1440,280.000000,280.019255
2.1450,280.000000,280.020356
2.1460,280.000000,280.024254
2.1470,280.000000,280.019573
2.1480,280.000000,280.015890
2.1490,280.000000,280.020914
2.1500,280.000000,280.022783
2.1510,280.000000,280.006485
2.1520,280.000000,280.009896
2.1530,280.000000,280.017536
2.1540,280.000000,280.006394
2.1550,280.000000,280.006608
2.1560,280.000000,280.023600
2.1570,280.000000,280.011910
2.1580,280.000000,280.010955
2.1590,280.000000,280.019086
2.1600,280.000000,280.019016
2.1610,280.000000,280.030690
2.1620,280.000000,280.024339
2.1630,280.000000,280.014708
2.1640,280.000000,280.016796
2.1650,280.000000,280.023646
2.1660,280.000000,280.025731
2.1670,280.000000,280.025762
2.1680,280.000000,280.022004
2.1690,280.000000,280.016568
2.1700,280.000000,280.018794
2.1710,280.000000,280.023298
2.1720,280.000000,280.012855
2.1730,280.000000,280.012188
2.1740,280.000000,280.010018
2.1750,280.000000,280.007096
2.1760,280.000000,280.011143
2.1770,280.000000,280.014939
2.1780,280.000000,280.008686
2.1790,280.000000,280.010044
2.1800,280.000000,280.017470
2.1810,280.000000,280.014767
2.1820,280.000000,280.030377
2.1830,280.000000,280.022549
2.1840,280.000000,280.021369
2.1850,280.000000,280.027961
2.1860,280.000000,280.016544
2.1870,280.000000,280.028523
2.1880,280.000000,280.028714
2.1890,280.000000,280.016776
2.1900,280.000000,280.015217
2.1910,280.000000,280.009497
2.1920,280.000000,279.998806
2.1930,280.000000,280.013020
2.1940,280.000000,279.995449
2.1950,280.000000,280.009000
2.1960,280.000000,280.008133
2.1970,280.000000,280.012503
2.1980,280.000000,280.000745
2.1990,280.000000,280.024940
2.2000,280.000000,280.017398
2.2010,280.000000,280.013935
2.2020,280.000000,280.018550
2.2030,280.000000,280.022803
2.2040,280.000000,280.008560
2.2050,280.000000,280.018569
2.2060,280.000000,280.016496
2.2070,280.000000,280.013128
2.2080,280.000000,280.015192
2.2090,280.000000,280.014527
2.2100,280.000000,280.015157
2.2110,280.000000,280.015039
2.2120,280.000000,280.010948
2.2130,280.000000,280.003925
2.2140,280.000000,280.007254
2.2150,280.000000,279.998913
2.2160,280.000000,280.006332
2.2170,280.000000,280.003995
2.2180,280.000000,280.017082
2.2190,280.000000,280.013493
2.2200,280.000000,280.017420
2.2210,280.000000,280.013817
2.2220,280.000000,280.020402
2.2230,280.000000,280.020765
2.2240,280.000000,280.021316
2.2250,280.000000,280.021933
2.2260,280.000000,280.026181
2.2270,280.000000,280.020085
2.2280,280.000000,280.013009
2.2290,280.000000,280.015080
2.2300,280.000000,280.019723
2.2310,280.000000,280.012076
2.2320,280.000000,280.006360
2.2330,280.000000,280.005518
2.2340,280.000000,280.004673
2.2350,280.000000,280.011419
2.2360,280.000000,280.003660
2.2370,280.000000,280.012798
2.2380,280.000000,280.012365
2.2390,280.000000,280.024224
2.2400,280.000000,280.018533
2.2410,280.000000,280.009779
2.2420,280.000000,280.027218
2.2430,280.000000,280.021132
2.2440,280.000000,280.017567
2.2450,280.000000,280.022548
2.2460,280.000000,280.026739
2.2470,280.000000,280.019868
2.2480,280.000000,280.009455
2.2490,280.000000,280.024512
2.2500,280.000000,280.006304
2.2510,280.000000,280.015987
2.2520,280.000000,280.013320
2.2530,280.000000,280.013109
2.2540,280.000000,280.001715
2.2550,280.000000,280.011602
2.2560,280.000000,280.009442
2.2570,280.000000,280.002525
2.2580,280.000000,280.007376
2.2590,280.000000,280.016174
2.2600,280.000000,280.016772
2.2610,280.000000,280.011695
2.2620,280.000000,280.019043
2.2630,280.000000,280.019100
2.2640,280.000000,280.019970
2.2650,280.000000,280.016692
2.2660,280.000000,280.016145
2.2670,280.000000,280.016678
2.2680,280.000000,280.007130
2.2690,280.000000,280.011225
2.2700,280.000000,280.009008
2.2710,280.000000,280.007187
2.2720,280.000000,280.005980
2.2730,280.000000,280.014823
2.2740,280.000000,279.999441
2.2750,280.000000,279.997677
2.2760,280.000000,279.998474
2.2770,280.000000,280.004502
2.2780,280.000000,280.007631
2.2790,280.000000,280.012245
2.2800,280.000000,280.002116
2.2810,280.000000,280.012668
2.2820,280.000000,280.010403
2.2830,280.000000,280.023664
2.2840,280.000000,280.015506
2.2850,280.000000,280.015559
2.2860,280.000000,280.021251
2.2870,280.000000,280.014155
2.2880,280.000000,280.012105
2.2890,280.000000,280.008208
2.2900,280.000000,280.009484
2.2910,280.000000,280.006163
2.2920,280.000000,280.002709
2.2930,280.000000,280.004555
2.2940,280.000000,280.015616
2.2950,280.000000,280.013384
2.2960,280.000000,280.016102
2.2970,280.000000,280.006230
2.2980,280.000000,280.009963
2.2990,280.000000,280.016334
2.3000,280.000000,280.013105
2.3010,280.000000,280.008497
2.3020,280.000000,280.015893
2.3030,280.000000,280.009114
2.3040,280.000000,280.013179
2.3050,280.000000,280.020580
2.3060,280.000000,280.002111
2.3070,280.000000,280.011020
2.3080,280.000000,280.009982
2.3090,280.000000,280.003909
2.3100,280.000000,280.014437
2.3110,280.000000,280.009463
2.3120,280.000000,280.004820
2.3130,280.000000,280.011572
2.3140,280.000000,279.998374
2.3150,280.000000,280.006512
2.3160,280.000000,280.004521
2.3170,280.000000,280.003985
2.3180,280.000000,280.005348
2.3190,280.000000,280.003522
2.3200,280.000000,280.006341
2.3210,280.000000,280.012564
2.3220,280.000000,280.022628
2.3230,280.000000,280.004697
2.3240,280.000000,280.008773
2.3250,280.000000,280.021604
2.3260,280.000000,280.018098
2.3270,280.000000,280.020601
2.3280,280.000000,280.015823
2.3290,280.000000,280.007548
2.3300,280.000000,280.010467
2.3310,280.000000,280.010801
2.3320,280.000000,280.006028
2.3330,280.000000,280.008729
2.3340,280.000000,280.009647
2.3350,280.000000,280.008497
2.3360,280.000000,279.999809
2.3370,280.000000,280.002403
2.3380,280.000000,280.007311
2.3390,280.000000,280.007158
2.3400,280.000000,280.007938
2.3410,280.000000,280.020590
2.3420,280.000000,280.007168
2.3430,280.000000,280.005261
2.3440,280.000000,280.020881
2.3450,280.000000,280.015406
2.3460,280.000000,280.010499
2.3470,280.000000,280.013866
2.3480,280.000000,280.022842
2.3490,280.000000,280.016159
2.3500,280.000000,280.012092
2.3510,280.000000,280.004810
2.3520,280.000000,280.008814
2.3530,280.000000,280.001985
2.3540,280.000000,280.016417
2.3550,280.000000,280.006474
2.3560,280.000000,280.002557
2.3570,280.000000,280.000239
2.3580,280.000000,280.015665
2.3590,280.000000,280.005391
2.3600,280.000000,280.016443
2.3610,280.000000,280.011477
2.3620,280.000000,280.014385
2.3630,280.000000,280.014988
2.3640,280.000000,280.010538
2.3650,280.000000,280.010461
2.3660,280.000000,280.017071
2.3670,280.000000,280.018137
2.3680,280.000000,280.018379
2.3690,280.000000,280.010151
2.3700,280.000000,280.005805
2.3710,280.000000,280.014874
2.3720,280.000000,280.005529
2.3730,280.000000,279.993450
2.3740,280.000000,280.008296
2.3750,280.000000,280.001999
2.3760,280.000000,279.998637
2.3770,280.000000,280.010858
2.3780,280.000000,280.008730
2.3790,280.000000,280.005527
2.3800,280.000000,279.992292
2.3810,280.000000,280.007334
2.3820,280.000000,280.019656
2.3830,280.000000,280.012558
2.3840,280.000000,280.018330
2.3850,280.000000,280.014587
2.3860,280.000000,280.015099
2.3870,280.000000,280.013684
2.3880,280.000000,280.020641
2.3890,280.000000,280.011553
2.3900,280.000000,280.007400
2.3910,280.000000,280.012150
2.3920,280.000000,280.001968
2.3930,280.000000,280.006875
2.3940,280.000000,280.007654
2.3950,280.000000,279.998255
2.3960,280.000000,280.001791
2.3970,280.000000,279.999509
2.3980,280.000000,280.009829
2.3990,280.000000,280.005777
2.4000,280.000000,280.014415
2.4010,280.000000,280.023535
2.4020,280.000000,280.011512
2.4030,280.000000,280.011686
2.4040,280.000000,280.023277
2.4050,280.000000,280.016655
2.4060,280.000000,280.018542
2.4070,280.000000,280.009742
2.4080,280.000000,280.014655
2.4090,280.000000,280.011057
2.4100,280.000000,280.009275
2.4110,280.000000,280.005127
2.4120,280.000000,280.009998
2.4130,280.000000,280.003376
2.4140,280.000000,280.001785
2.4150,280.000000,279.997806
2.4160,280.000000,280.003696
2.4170,280.000000,280.001988
2.4180,280.000000,280.002096
2.4190,280.000000,280.001919
2.4200,280.000000,280.005891
2.4210,280.000000,280.012278
2.4220,280.000000,280.006577
2.4230,280.000000,280.025657
2.4240,280.000000,280.011166
2.4250,280.000000,280.018109
2.4260,280.000000,280.016563
2.4270,280.000000,280.016401
2.4280,280.000000,280.007396
2.4290,280.000000,280.018508
2.4300,280.000000,280.008036
2.4310,280.000000,280.005439
2.4320,280.000000,280.006522
2.4330,280.000000,280.011654
2.4340,280.000000,279.994419
2.4350,280.000000,280.002501
2.4360,280.000000,280.004001
2.4370,280.000000,280.003111
2.4380,280.000000,280.010983
2.4390,280.000000,280.001931
2.4400,280.000000,280.009251
2.4410,280.000000,280.014623
2.4420,280.000000,280.010364
2.4430,280.000000,280.014487
2.4440,280.000000,280.010511
2.4450,280.000000,280.014306
2.4460,280.000000,280.015022
2.4470,280.000000,280.015249
2.4480,280.000000,280.012135
2.4490,280.000000,280.013295
2.4500,280.000000,280.003977
2.4510,280.000000,280.012459
2.4520,280.000000,280.004287
2.4530,280.000000,280.003826
2.4540,280.000000,280.004257
2.4550,280.000000,279.998665
2.4560,280.000000,280.001703
2.4570,280.000000,279.995453
2.4580,280.000000,280.004243
2.4590,280.000000,280.006990
2.4600,280.000000,280.011507
2.4610,280.000000,280.005886
2.4620,280.000000,280.003379
2.4630,280.000000,280.014489
2.4640,280.000000,280.011536
2.4650,280.000000,280.018776
2.4660,280.000000,280.008818
2.4670,280.000000,280.003130
2.4680,280.000000,280.014505
2.4690,280.000000,280.008271
2.4700,280.000000,280.010622
2.4710,280.000000,280.000902
2.4720,280.000000,279.999597
2.4730,280.000000,280.008553
2.4740,280.000000,280.007571
2.4750,280.000000,279.997912
2.4760,280.000000,279.997909
2.4770,280.000000,280.003511
2.4780,280.000000,279.991038
2.4790,280.000000,280.008865
2.4800,280.000000,280.006232
2.4810,280.000000,280.013513
2.4820,280.000000,280.013127
2.4830,280.000000,280.011729
2.4840,280.000000,280.018202
2.4850,280.000000,280.004926
2.4860,280.000000,280.017201
2.4870,280.000000,280.014946
2.4880,280.000000,280.015970
2.4890,280.000000,280.000324
2.4900,280.000000,280.007408
2.4910,280.000000,280.002774
2.4920,280.000000,280.005882
2.4930,280.000000,280.010870
2.4940,280.000000,280.000590
2.4950,280.000000,280.001939
2.4960,280.000000,279.998107
2.4970,280.000000,280.003404
2.4980,280.000000,280.007646
2.4990,280.000000,280.008730
2.5000,280.000000,280.011661
2.5010,280.000000,280.007123
2.5020,280.000000,280.006367
2.5030,280.000000,280.006676
2.5040,280.000000,280.012982
2.5050,280.000000,280.009272
2.5060,280.000000,280.009717
2.5070,280.000000,280.018788
2.5080,280.000000,280.013449
2.5090,280.000000,280.009411
2.5100,280.000000,280.004673
2.5110,280.000000,280.007721
2.5120,280.000000,280.000366
2.5130,280.000000,280.007513
2.5140,280.000000,280.005478
2.5150,280.000000,280.004605
2.5160,280.000000,279.998351
2.5170,280.000000,279.998186
2.5180,280.000000,280.013598
2.5190,280.000000,279.992712
2.5200,280.000000,280.012031
2.5210,280.000000,280.005846
2.5220,280.000000,280.015491
2.5230,280.000000,280.015227
2.5240,280.000000,280.010682
2.5250,280.000000,280.005889
2.5260,280.000000,280.007089
2.5270,280.000000,280.010261
2.5280,280.000000,280.003808
2.5290,280.000000,280.010616
2.5300,280.000000,280.010822
2.5310,280.000000,280.013181
2.5320,280.000000,280.009980
2.5330,280.000000,279.994384
2.5340,280.000000,280.002475
2.5350,280.000000,280.001451
2.5360,280.000000,280.007358
2.5370,280.000000,279.995637
2.5380,280.000000,280.003448
2.5390,280.000000,280.000364
2.5400,280.000000,280.005981
2.5410,280.000000,280.010424
2.5420,280.000000,280.012303
2.5430,280.000000,280.008169
2.5440,280.000000,280.008613
2.5450,280.000000,280.018144
2.5460,280.000000,280.011293
2.5470,280.000000,280.010418
2.5480,280.000000,280.002321
2.5490,280.000000,280.005191
2.5500,280.000000,280.010511
2.5510,280.000000,280.004494
2.5520,280.000000,279.986061
2.5530,280.000000,279.994865
2.5540,280.000000,280.005452
2.5550,280.000000,280.007019
2.5560,280.000000,279.997241
2.5570,280.000000,280.009375
2.5580,280.000000,279.997277
2.5590,280.000000,280.005433
2.5600,280.000000,280.003880
2.5610,280.000000,280.007218
2.5620,280.000000,280.003261
2.5630,280.000549,280.008066
2.5640,280.000669,280.015133
2.5650,280.000812,280.018015
2.5660,280.000979,280.018715
2.5670,280.001175,280.010086
2.5680,280.001403,280.014931
2.5690,280.001667,280.008220
2.5700,280.001971,280.007824
2.5710,280.002319,280.005245
2.5720,280.002715,280.001353
2.5730,280.003162,280.002679
2.5740,280.003665,279.995173
2.5750,280.004226,280.000853
2.5760,280.004849,280.005832
2.5770,280.005536,279.996729
2.5780,280.006288,279.994189
2.5790,280.007108,280.007095
2.5800,280.007994,280.012925
2.5810,280.008946,280.009871
2.5820,280.009961,280.016800
2.5830,280.011036,280.018060
2.5840,280.012167,280.021488
2.5850,280.013346,280.009848
2.5860,280.014566,280.026545
2.5870,280.015819,280.037722
2.5880,280.017093,280.021304
2.5890,280.018379,280.022089
2.5900,280.019662,280.030269
2.5910,280.020930,280.019212
2.5920,280.022169,280.030151
2.5930,280.023364,280.021029
2.5940,280.024501,280.019855
2.5950,280.025564,280.023790
2.5960,280.026541,280.016937
2.5970,280.027418,280.027226
2.5980,280.028182,280.026393
2.5990,280.028824,280.029586
2.6000,280.029333,280.031614
2.6010,280.029701,280.037186
2.6020,280.029925,280.032576
2.6030,280.030000,280.037433
2.6040,280.029925,280.043049
2.6050,280.029701,280.039842
2.6060,280.029333,280.036368
2.6070,280.028824,280.034003
2.6080,280.028182,280.024589
2.6090,280.027418,280.032872
2.6100,280.026541,280.028460
2.6110,280.025564,280.031185
2.6120,280.024501,280.025071
2.6130,280.023364,280.021273
2.6140,280.022169,280.016383
2.6150,280.020930,280.020447
2.6160,280.019662,280.018012
2.6170,280.018379,280.019563
2.6180,280.017093,280.014679
2.6190,280.015819,280.018257
2.6200,280.014566,280.021863
2.6210,280.013346,280.025691
2.6220,280.012167,280.029338
2.6230,280.011036,280.024127
2.6240,280.009961,280.021410
2.6250,280.008946,280.012881
2.6260,280.007994,280.019118
2.6270,280.007108,280.023157
2.6280,280.006288,280.018320
2.6290,280.005536,280.016272
2.6300,280.004849,280.005213
2.6310,280.004226,280.012143
2.6320,280.003665,279.997497
2.6330,280.003162,279.998661
2.6340,280.002715,280.004823
2.6350,280.002319,279.995270
2.6360,280.001971,279.999451
2.6370,280.001667,280.007433
2.6380,280.001403,280.001695
2.6390,280.001175,280.009472
2.6400,280.000979,280.007618
2.6410,280.000812,280.016895
2.6420,280.000669,280.009757
2.6430,280.000000,280.003020
2.6440,280.000000,280.011456
2.6450,280.000000,280.017589
2.6460,280.000000,280.005069
2.6470,280.000000,280.003834
2.6480,280.000000,280.010301
2.6490,280.000000,280.001067
2.6500,280.000000,280.004268
2.6510,280.000000,280.005776
2.6520,280.000000,280.004704
2.6530,280.000000,279.996430
2.6540,280.000000,279.999492
2.6550,280.000000,279.991787
2.6560,280.000000,279.992196
2.6570,280.000000,280.002987
2.6580,280.000000,280.008340
2.6590,280.000000,279.993869
2.6600,280.000000,279.996943
2.6610,280.000000,280.002044
2.6620,280.000000,280.005225
2.6630,280.000000,280.011527
2.6640,279.993763,279.994212
2.6650,279.987798,279.990315
2.6660,279.982366,279.990722
2.6670,279.977706,279.983390
2.6680,279.974019,279.975498
2.6690,279.971468,279.969763
2.6700,279.970164,279.969984
2.6710,279.975659,279.977413
2.6720,279.981877,279.976109
2.6730,279.992672,279.981604
2.6740,280.009325,280.010774
2.6750,280.033070,280.030466
2.6760,280.064711,280.064298
2.6770,280.104126,280.103937
2.6780,280.149806,280.151339
2.6790,280.192354,280.195466
2.6800,280.233640,280.242189
2.6810,280.268452,280.264855
2.6820,280.291781,280.303775
2.6830,280.300000,280.307189
2.6840,280.291781,280.300608
2.6850,280.268452,280.277325
2.6860,280.233640,280.243120
2.6870,280.192354,280.206564
2.6880,280.149806,280.156832
2.6890,280.110364,280.111668
2.6900,280.076913,280.087902
2.6910,280.050704,280.048448
2.6920,280.031620,280.020675
2.6930,280.018653,280.013276
2.6940,280.010409,280.007096
2.6950,280.000000,279.996519
2.6960,280.000000,279.994671
2.6970,280.000000,279.997202
2.6980,280.000000,279.998050
2.6990,280.000000,279.998855
2.7000,280.000000,280.006172
2.7010,280.000000,280.004211
2.7020,280.000000,280.010371
2.7030,279.955000,279.955599
2.7040,279.961268,279.972056
2.7050,279.966663,279.975321
2.7060,279.971307,279.978053
2.7070,279.975303,279.977188
2.7080,279.978744,279.987617
2.7090,279.981704,279.988823
2.7100,279.984253,279.994671
2.7110,279.986446,279.987008
2.7120,279.988334,279.984129
2.7130,279.989959,279.986087
2.7140,279.991358,279.983851
2.7150,279.992562,279.978608
2.7160,279.993598,279.991516
2.7170,279.994489,279.990701
2.7180,279.995257,279.986168
2.7190,279.995918,280.001509
2.7200,279.996486,280.000649
2.7210,279.996976,279.993770
2.7220,279.997397,280.005969
2.7230,280.000000,280.005154
2.7240,280.000000,280.006844
2.7250,280.000000,280.003305
2.7260,280.000000,280.010045
2.7270,280.000000,280.008580
2.7280,280.000000,280.004555
2.7290,280.000000,280.007791
2.7300,280.000000,280.004470
2.7310,280.000000,279.992672
2.7320,280.000000,280.001156
2.7330,280.000000,279.996755
2.7340,280.000000,280.005364
2.7350,280.000000,279.989538
2.7360,280.000000,279.996269
2.7370,280.000000,280.000446
2.7380,280.000000,280.000881
2.7390,280.000000,279.993772
2.7400,280.000000,280.000475
2.7410,280.000000,280.009633
2.7420,280.000000,280.002766
2.7430,280.000000,280.014754
2.7440,280.000000,280.001354
2.7450,280.000000,280.010325
2.7460,280.000000,280.005275
2.7470,280.000000,280.005139
2.7480,280.000000,280.016015
2.7490,280.000000,280.008251
2.7500,280.000000,280.007325
2.7510,280.000000,280.000366
2.7520,280.000000,280.003496
2.7530,280.000000,279.999661
2.7540,280.000000,280.002467
2.7550,280.000000,279.992440
2.7560,280.000000,279.998813
2.7570,280.000000,279.991532
2.7580,280.000000,279.995255
2.7590,280.000000,280.000619
2.7600,280.000000,279.996990
2.7610,280.000000,280.002130
2.7620,280.000000,280.003412
2.7630,280.001648,280.021895
2.7640,280.001821,280.006290
2.7650,280.002008,280.007354
2.7660,280.002213,280.008147
2.7670,280.002435,280.013401
2.7680,280.002676,280.012738
2.7690,280.002937,280.010852
2.7700,280.003219,280.000803
2.7710,280.003525,280.006675
2.7720,280.003854,279.995971
2.7730,280.004209,279.996431
2.7740,280.004591,280.007490
2.7750,280.005002,280.003867
2.7760,280.005442,279.993924
2.7770,280.005914,280.012259
2.7780,280.006419,280.007780
2.7790,280.006957,280.000909
2.7800,280.007532,280.006569
2.7810,280.008144,280.018291
2.7820,280.008795,280.021760
2.7830,280.009486,280.009145
2.7840,280.010218,280.016697
2.7850,280.010994,280.017291
2.7860,280.011813,280.012661
2.7870,280.012677,280.017707
2.7880,280.013588,280.014025
2.7890,280.014546,280.021868
2.7900,280.015552,280.019185
2.7910,280.016607,280.024920
2.7920,280.017711,280.027617
2.7930,280.018865,280.018497
2.7940,280.020069,280.013593
2.7950,280.021323,280.019819
2.7960,280.022628,280.019252
2.7970,280.023982,280.026448
2.7980,280.025386,280.032249
2.7990,280.026838,280.030696
2.8000,280.028337,280.022337
2.8010,280.029884,280.027328
2.8020,280.031475,280.041687
2.8030,280.033109,280.040542
2.8040,280.034785,280.040294
2.8050,280.036500,280.031926
2.8060,280.038252,280.045648
2.8070,280.040037,280.051503
2.8080,280.041854,280.051597
2.8090,280.043698,280.045181
2.8100,280.045567,280.046435
2.8110,280.047456,280.043327
2.8120,280.049362,280.045171
2.8130,280.051280,280.051014
2.8140,280.053207,280.052431
2.8150,280.055136,280.060608
2.8160,280.057065,280.057772
2.8170,280.058987,280.056966
2.8180,280.060897,280.052931
2.8190,280.062791,280.056023
2.8200,280.064663,280.067138
2.8210,280.066507,280.076686
2.8220,280.068319,280.066958
2.8230,280.070092,280.078049
2.8240,280.071822,280.085896
2.8250,280.073502,280.079984
2.8260,280.075127,280.085783
2.8270,280.076693,280.087316
2.8280,280.078193,280.083054
2.8290,280.079624,280.093365
2.8300,280.080979,280.086175
2.8310,280.082254,280.085265
2.8320,280.083445,280.078219
2.8330,280.084547,280.087322
2.8340,280.085557,280.081370
2.8350,280.086471,280.080180
2.8360,280.087286,280.069674
2.8370,280.087998,280.085099
2.8380,280.088605,280.087767
2.8390,280.089104,280.095184
2.8400,280.089495,280.093704
2.8410,280.089775,280.096240
2.8420,280.089944,280.098251
2.8430,280.090000,280.093334
2.8440,280.089944,280.097419
2.8450,280.089775,280.105814
2.8460,280.089495,280.100239
2.8470,280.089104,280.095184
2.8480,280.088605,280.094286
2.8490,280.087998,280.092931
2.8500,280.087286,280.091567
2.8510,280.086471,280.083121
2.8520,280.085557,280.082112
2.8530,280.084547,280.081672
2.8540,280.083445,280.079236
2.8550,280.082254,280.080496
2.8560,280.080979,280.076920
2.8570,280.079624,280.075312
2.8580,280.078193,280.079081
2.8590,280.076693,280.071220
2.8600,280.075127,280.070710
2.8610,280.073502,280.090023
2.8620,280.071822,280.076220
2.8630,280.070092,280.069370
2.8640,280.068319,280.077306
2.8650,280.066507,280.071110
2.8660,280.064663,280.073279
2.8670,280.062791,280.062832
2.8680,280.060897,280.067907
2.8690,280.058987,280.061775
2.8700,280.057065,280.067205
2.8710,280.055136,280.059489
2.8720,280.053207,280.046620
2.8730,280.051280,280.036428
2.8740,280.049362,280.042869
2.8750,280.047456,280.037960
2.8760,280.045567,280.036357
2.8770,280.043698,280.038923
2.8780,280.041854,280.038690
2.8790,280.040037,280.038402
2.8800,280.038252,280.051368
2.8810,280.036500,280.037352
2.8820,280.034785,280.050584
2.8830,280.033109,280.044200
2.8840,280.031475,280.039750
2.8850,280.029884,280.037382
2.8860,280.028337,280.031959
2.8870,280.026838,280.028156
2.8880,280.025386,280.026866
2.8890,280.023982,280.030201
2.8900,280.022628,280.021668
2.8910,280.021323,280.021977
2.8920,280.020069,280.019930
2.8930,280.018865,280.014888
2.8940,280.017711,280.011413
2.8950,280.016607,280.013143
2.8960,280.015552,280.002504
2.8970,280.014546,280.008477
2.8980,280.013588,280.001409
2.8990,280.012677,280.009534
2.9000,280.011813,280.019403
2.9010,280.010994,280.010844
2.9020,280.010218,280.015475
2.9030,280.009486,280.017595
2.9040,280.008795,280.017791
2.9050,280.008144,280.015047
2.9060,280.007532,280.015293
2.9070,280.006957,280.014644
2.9080,280.006419,280.010281
2.9090,280.005914,280.005594
2.9100,280.005442,280.009904
2.9110,280.005002,280.005363
2.9120,280.004591,280.003155
2.9130,280.004209,280.001186
2.9140,280.003854,280.000054
2.9150,280.003525,279.993216
2.9160,280.003219,279.992191
2.9170,280.002937,279.997445
2.9180,280.002676,280.002349
2.9190,280.002435,279.997472
2.9200,280.002213,280.002327
2.9210,280.002008,280.006933
2.9220,280.001821,280.014343
2.9230,280.000000,280.000014
2.9240,280.000000,280.012279
2.9250,280.000000,280.009006
2.9260,280.000000,280.015019
2.9270,280.000000,279.999671
2.9280,280.000000,280.007824
2.9290,280.000000,280.003646
2.9300,280.000000,279.995304
2.9310,280.000000,280.000514
2.9320,280.000000,279.985029
2.9330,280.000000,280.000097
2.9340,280.000000,279.991327
2.9350,280.000000,280.000222
2.9360,280.000000,280.004173
2.9370,280.000000,280.000828
2.9380,280.000000,280.001241
2.9390,280.000000,279.993429
2.9400,280.000000,280.001582
2.9410,280.000000,280.000196
2.9420,280.000000,280.002822
2.9430,280.000000,280.014796
2.9440,280.000000,280.007696
2.9450,280.000000,280.009088
2.9460,280.000000,280.006186
2.9470,280.000000,280.011738
2.9480,280.000000,280.006217
2.9490,280.000000,279.993711
2.9500,280.000000,279.997831
2.9510,280.000000,280.005985
2.9520,280.000000,279.997708
2.9530,280.000000,279.993219
2.9540,280.000000,280.001348
2.9550,280.000000,279.993132
2.9560,280.000000,279.993544
2.9570,280.000000,279.997260
2.9580,280.000000,279.996333
2.9590,280.000000,280.001534
2.9600,280.000000,279.994376
2.9610,280.000000,280.006074
2.9620,280.000000,280.001568
2.9630,280.000000,280.009613
2.9640,280.000000,280.008584
2.9650,280.000000,280.018057
2.9660,280.000000,279.999631
2.9670,280.000000,280.003260
2.9680,280.000000,280.002585
2.9690,280.000000,280.000832
2.9700,280.000000,280.003511
2.9710,280.000000,279.994454
2.9720,280.000000,280.000462
2.9730,280.000000,279.996455
2.9740,280.000000,279.994720
2.9750,280.000000,279.993311
2.9760,280.000000,279.993016
2.9770,280.000000,279.993095
2.9780,280.000000,279.998578
2.9790,280.000000,279.986859
2.9800,280.000000,280.000798
2.9810,280.000000,280.004113
2.9820,280.000000,279.999607
2.9830,280.000000,280.005822
2.9840,280.000000,280.008536
2.9850,280.000000,280.008723
2.9860,280.000000,280.008124
2.9870,280.000000,280.006823
2.9880,280.000000,280.000961
2.9890,280.000000,279.997088
2.9900,280.000000,279.995705
2.9910,280.000000,280.004707
2.9920,280.000000,279.994450
2.9930,280.000000,279.992203
2.9940,280.000000,279.998925
2.9950,280.000000,279.990403
2.9960,280.000000,279.999348
2.9970,280.000000,280.005331
2.9980,280.000000,279.991505
2.9990,280.000000,280.002829
3.0000,280.000000,280.004552
3.0010,280.000000,279.999093
3.0020,280.000000,280.013825
3.0030,280.000000,280.002070
3.0040,280.000000,280.010494
3.0050,280.000000,280.004594
3.0060,280.000000,280.002583
3.0070,280.000000,280.010976
3.0080,280.000000,279.997477
3.0090,280.000000,279.999898
3.0100,280.000000,279.996254
3.0110,280.000000,279.990849
3.0120,280.000000,280.000670
3.0130,280.000000,279.990566
3.0140,280.000000,279.993297
3.0150,280.000000,279.995971
3.0160,280.000000,279.992147
3.0170,280.000000,280.000271
3.0180,280.000000,280.000348
3.0190,280.000000,279.990933
3.0200,280.000000,279.999975
3.0210,280.000000,280.001986
3.0220,280.000000,280.004629
3.0230,280.000000,279.998005
3.0240,280.000000,280.000512
3.0250,280.000000,280.007855
3.0260,280.000000,280.001054
3.0270,280.000000,280.007741
3.0280,280.000000,280.005706
3.0290,280.000000,279.999020
3.0300,280.000000,280.000000
3.0310,280.000000,279.993415
3.0320,280.000000,279.994687
3.0330,280.000000,280.004994
3.0340,280.000000,279.996839
3.0350,280.000000,279.999817
3.0360,280.000000,279.992896
3.0370,280.000000,279.991114
3.0380,280.000000,280.002273
3.0390,280.000000,279.997587
3.0400,280.000000,279.997409
3.0410,280.000000,280.005846
3.0420,280.000000,280.005946
3.0430,280.000000,279.996875
3.0440,280.000000,280.009251
3.0450,280.000000,280.005845
3.0460,280.000000,280.005726
3.0470,280.000000,280.004826
3.0480,280.000000,279.998481
3.0490,280.000000,279.998126
3.0500,280.000000,279.999336
3.0510,280.000000,280.001909
3.0520,280.000000,279.999154
3.0530,280.000000,279.991326
3.0540,280.000000,279.993632
3.0550,280.000000,279.991047
3.0560,280.000000,279.995464
3.0570,280.000000,279.992317
3.0580,280.000000,279.997531
3.0590,280.000000,280.003497
3.0600,280.000000,280.000021
3.0610,280.000000,279.990906
3.0620,280.000000,280.004701
3.0630,280.000000,280.001855
3.0640,280.000000,279.999981
3.0650,280.000000,280.004578
3.0660,280.000000,280.009256
3.0670,280.000000,280.011117
3.0680,280.000000,280.000994
3.0690,280.000000,280.002617
3.0700,280.000000,279.997639
3.0710,280.000000,279.992836
3.0720,280.000000,279.994129
3.0730,280.000000,279.996146
3.0740,280.000000,279.993293
3.0750,280.000000,279.997970
3.0760,280.000000,279.996450
3.0770,280.000000,279.994826
3.0780,280.000000,279.989052
3.0790,280.000000,279.998283
3.0800,280.000000,280.001709
3.0810,280.000000,279.997950
3.0820,280.000000,280.003821
3.0830,280.000000,280.004361
3.0840,280.000000,280.012619
3.0850,280.000000,280.011786
3.0860,280.000000,280.000559
3.0870,280.000000,280.007075
3.0880,280.000000,280.003899
3.0890,280.000000,280.006375
3.0900,280.000000,279.999811
3.0910,280.000000,279.983101
3.0920,280.000000,279.993392
3.0930,280.000000,279.994479
3.0940,280.000000,279.991778
3.0950,280.000000,279.990886
3.0960,280.000000,279.988854
3.0970,280.000000,279.998522
3.0980,280.000000,279.992589
3.0990,280.000000,279.999628
3.1000,280.000000,279.993821
3.1010,280.000000,279.994663
3.1020,280.000000,280.008884
3.1030,280.000000,280.012983
3.1040,280.000000,280.018515
3.1050,280.000000,280.005408
3.1060,280.000000,280.001134
3.1070,280.000000,279.997130
3.1080,280.000000,280.011003
3.1090,280.000000,280.002756
3.1100,280.000000,280.005935
3.1110,280.000000,280.004729
3.1120,280.000000,279.991870
3.1130,280.000000,279.994757
3.1140,280.000000,280.002029
3.1150,280.000000,279.990024
3.1160,280.000000,279.989783
3.1170,280.000000,279.995703
3.1180,280.000000,279.989467
3.1190,280.000000,279.989355
3.1200,280.000000,279.990972
3.1210,280.000000,280.013786
3.1220,280.000000,280.007472
3.1230,280.000000,280.002996
3.1240,280.000000,280.000242
3.1250,280.000000,280.007796
3.1260,280.000000,280.010182
3.1270,280.000000,280.009211
3.1280,280.000000,279.988122
3.1290,280.000000,280.010112
3.1300,280.000000,280.000585
3.1310,280.000000,279.991021
3.1320,280.000000,279.985052
3.1330,280.000000,279.994462
3.1340,280.000000,280.001184
3.1350,280.000000,280.000266
3.1360,280.000000,279.997724
3.1370,280.000000,279.997368
3.1380,280.000000,280.000106
3.1390,280.000000,280.000219
3.1400,280.000000,279.996807
3.1410,280.000000,279.995600
3.1420,280.000000,279.999828
3.1430,280.000000,280.006799
3.1440,280.000000,279.996976
3.1450,280.000000,280.001473
3.1460,280.000000,280.004137
3.1470,280.000000,280.012668
3.1480,280.000000,279.999147
3.1490,280.000000,280.000291
3.1500,280.000000,279.996981
3.1510,280.000000,279.997471
3.1520,280.000000,279.992900
3.1530,280.000000,279.992015
3.1540,280.000000,280.003753
3.1550,280.000000,279.998522
3.1560,280.000000,279.989894
3.1570,280.000000,279.993390
3.1580,280.000000,279.995817
3.1590,280.000000,279.991971
3.1600,280.000000,279.993982
3.1610,280.000000,280.000189
3.1620,280.000000,280.009423
3.1630,280.000000,280.003846
3.1640,280.000000,280.006434
3.1650,280.000000,280.004256
3.1660,280.000000,280.012438
3.1670,280.000000,280.003878
3.1680,280.000000,279.991871
3.1690,280.000000,280.005241
3.1700,280.000000,279.999977
3.1710,280.000000,279.992047
3.1720,280.000000,279.996341
3.1730,280.000000,279.995768
3.1740,280.000000,279.990146
3.1750,280.000000,279.991774
3.1760,280.000000,279.998654
3.1770,280.000000,279.992554
3.1780,280.000000,280.001262
3.1790,280.000000,280.004874
3.1800,280.000000,280.001050
3.1810,280.000000,279.994285
3.1820,280.000000,279.998079
3.1830,280.000000,280.005097
3.1840,280.000000,280.006817
3.1850,280.000000,280.008255
3.1860,280.000000,280.011542
3.1870,280.000000,279.999057
3.1880,280.000000,279.997437
3.1890,280.000000,280.006960
3.1900,280.000000,280.005874
3.1910,280.000000,280.000018
3.1920,280.000000,280.004736
3.1930,280.000000,279.990670
3.1940,280.000000,279.998036
3.1950,280.000000,280.003334
3.1960,280.000000,279.994942
3.1970,280.000000,279.998280
3.1980,280.000000,280.000508
3.1990,280.000000,279.994784
3.2000,280.000000,279.999371
3.2010,280.000000,279.995442
3.2020,280.000000,280.007091
3.2030,280.000000,280.002940
3.2040,280.000000,280.000274
3.2050,280.000000,280.013507
3.2060,280.000000,280.016882
3.2070,280.000000,280.002182
3.2080,280.000000,280.008758
3.2090,280.000000,280.005863
3.2100,280.000000,279.996181
3.2110,280.000000,280.001935
3.2120,280.000000,279.995797
3.2130,280.000000,280.000750
3.2140,280.000000,279.985356
3.2150,280.000000,279.997075
3.2160,280.000000,280.001240
3.2170,280.000000,279.994342
3.2180,280.000000,279.993302
3.2190,280.000000,279.995424
3.2200,280.000000,280.005115
3.2210,280.000000,279.997050
3.2220,280.000000,280.000302
3.2230,280.000000,280.000825
3.2240,280.000000,280.008150
3.2250,280.000000,280.022491
3.2260,280.000000,280.005707
3.2270,280.000000,280.004123
3.2280,280.000000,280.009607
3.2290,280.000000,279.999070
3.2300,280.000000,280.004201
3.2310,280.000000,279.999414
3.2320,280.000000,279.995487
3.2330,280.000000,279.998466
3.2340,280.000000,279.990399
3.2350,280.000000,279.992645
3.2360,280.000000,279.991704
3.2370,280.000000,279.993927
3.2380,280.000000,279.991576
3.2390,280.000000,280.002021
3.2400,280.000000,280.005354
3.2410,280.000000,280.002500
3.2420,280.000000,279.995615
3.2430,280.000000,280.013140
3.2440,280.000000,280.004511
3.2450,280.000000,280.006555
3.2460,280.000000,280.004743
3.2470,280.000000,280.007854
3.2480,280.000000,279.998000
3.2490,280.000000,280.003150
3.2500,280.000000,279.997871
3.2510,280.000000,279.992937
3.2520,280.000000,280.001092
3.2530,280.000000,279.994826
3.2540,280.000000,279.999057
3.2550,280.000000,279.986532
3.2560,280.000000,279.997613
3.2570,280.000000,279.992231
3.2580,280.000000,279.996588
3.2590,280.000000,279.995706
3.2600,280.000000,279.998079
3.2610,280.000000,280.006311
3.2620,280.000000,280.000850
3.2630,280.000000,280.016252
3.2640,280.000000,280.013698
3.2650,280.000000,280.014524
3.2660,280.000000,280.003513
3.2670,280.000000,280.006036
3.2680,280.000000,280.005581
3.2690,280.000000,279.998052
3.2700,280.000000,279.999028
3.2710,280.000000,279.997191
3.2720,280.000000,280.000396
3.2730,280.000000,279.992565
3.2740,280.000000,279.997840
3.2750,280.000000,279.995714
3.2760,280.000000,279.993194
3.2770,280.000000,279.987747
3.2780,280.000000,279.993524
3.2790,280.000000,279.988662
3.2800,280.000000,279.999254
3.2810,280.000000,280.001768
3.2820,280.000000,279.997930
3.2830,280.000000,280.002960
3.2840,280.000000,280.004401
3.2850,280.000000,280.009501
3.2860,280.000000,280.009300
3.2870,280.000000,280.005740
3.2880,280.000000,280.006326
3.2890,280.000000,280.004213
3.2900,280.000000,279.991085
3.2910,280.000000,279.993810
3.2920,280.000000,279.995316
3.2930,280.000000,279.997707
3.2940,280.000000,279.990243
3.2950,280.000000,279.994307
3.2960,280.000000,279.995152
3.2970,280.000000,280.000330
3.2980,280.000000,279.999447
3.2990,280.000000,280.001588
3.3000,280.000000,280.004799
3.3010,280.000000,280.002143
3.3020,280.000000,280.010312
3.3030,280.000000,280.006974
3.3040,280.000000,280.002716
3.3050,280.000000,280.006814
3.3060,280.000000,280.005163
3.3070,280.000000,280.015769
3.3080,280.000000,279.997330
3.3090,280.000000,279.993921
3.3100,280.000000,280.001610
3.3110,280.000000,279.994048
3.3120,280.000000,279.989373
3.3130,280.000000,280.001125
3.3140,280.000000,279.992657
3.3150,280.000000,279.994642
3.3160,280.000000,279.995279
3.3170,280.000000,279.996795
3.3180,280.000000,280.000645
3.3190,280.000000,279.999985
3.3200,280.000000,279.995904
3.3210,280.000000,280.004898
3.3220,280.000000,279.996953
3.3230,280.000000,280.001984
3.3240,280.000000,280.008507
3.3250,280.000000,280.006776
3.3260,280.000000,280.003416
3.3270,280.000000,280.001204
3.3280,280.000000,280.003964
3.3290,280.000000,279.997430
3.3300,280.000000,280.010778
3.3310,280.000000,280.001644
3.3320,280.000000,279.997783
3.3330,280.000000,279.998697
3.3340,280.000000,279.997206
3.3350,280.000000,279.996819
3.3360,280.000000,279.991933
3.3370,280.000000,279.992526
3.3380,280.000000,279.992431
3.3390,280.000000,280.001709
3.3400,280.000000,280.001186
3.3410,280.000000,279.996286
3.3420,280.000000,280.006592
3.3430,280.000000,280.004957
3.3440,280.000000,279.995187
3.3450,280.000000,280.008650
3.3460,280.000000,280.001549
3.3470,280.000000,280.005894
3.3480,280.000000,280.011860
3.3490,280.000000,279.994347
3.3500,280.000000,280.003088
3.3510,280.000000,279.993961
3.3520,280.000000,279.993795
3.3530,280.000000,279.984268
3.3540,280.000000,279.996726
3.3550,280.000000,279.989997
3.3560,280.000000,279.994709
3.3570,280.000000,279.998446
3.3580,280.000000,280.004284
3.3590,280.000000,280.005343
3.3600,280.000000,279.993927
3.3610,280.000000,280.003031
3.3620,280.000000,280.016195
3.3630,280.000000,280.006963
3.3640,280.000000,280.007442
3.3650,280.000000,280.008441
3.3660,280.000000,280.005228
3.3670,280.000000,280.010905
3.3680,280.000000,280.002377
3.3690,280.000000,280.006234
3.3700,280.000000,279.993846
3.3710,280.000000,279.988467
3.3720,280.000000,279.995356
3.3730,280.000000,279.989328
3.3740,280.000000,279.985310
3.3750,280.000000,280.002123
3.3760,280.000000,279.997537
3.3770,280.000000,279.995549
3.3780,280.000000,279.995452
3.3790,280.000000,280.002901
3.3800,280.000000,280.005832
3.3810,280.000000,279.996758
3.3820,280.000000,280.001413
3.3830,280.000000,280.003593
3.3840,280.000000,280.009774
3.3850,280.000000,280.004536
3.3860,280.000000,280.007231
3.3870,280.000000,280.004025
3.3880,280.000000,280.007921
3.3890,280.000000,280.005404
3.3900,280.000000,279.997523
3.3910,280.000000,279.994009
3.3920,280.000000,279.991627
3.3930,280.000000,280.003273
3.3940,280.000000,280.007211
3.3950,280.000000,279.999583
3.3960,280.000000,279.985746
3.3970,280.000000,279.991641
3.3980,280.000000,279.992343
3.3990,280.000549,279.997161
3.4000,280.000669,279.989886
3.4010,280.000812,279.997159
3.4020,280.000979,280.012733
3.4030,280.001175,280.009049
3.4040,280.001403,280.007384
3.4050,280.001667,280.005546
3.4060,280.001971,280.005689
3.4070,280.002319,280.009758
3.4080,280.002715,280.006735
3.4090,280.003162,280.000781
3.4100,280.003665,280.007973
3.4110,280.004226,279.999065
3.4120,280.004849,280.006684
3.4130,280.005536,279.994671
3.4140,280.006288,279.996054
3.4150,280.007108,280.005785
3.4160,280.007994,279.999022
3.4170,280.008946,280.010561
3.4180,280.009961,280.009439
3.4190,280.011036,280.015048
3.4200,280.012167,280.011489
3.4210,280.013346,280.009801
3.4220,280.014566,280.013165
3.4230,280.015819,280.025755
3.4240,280.017093,280.020091
3.4250,280.018379,280.024878
3.4260,280.019662,280.019917
3.4270,280.020930,280.028974
3.4280,280.022169,280.017818
3.4290,280.023364,280.031578
3.4300,280.024501,280.018004
3.4310,280.025564,280.018617
3.4320,280.026541,280.022365
3.4330,280.027418,280.033766
3.4340,280.028182,280.020279
3.4350,280.028824,280.020645
3.4360,280.029333,280.022042
3.4370,280.029701,280.033143
3.4380,280.029925,280.035452
3.4390,280.030000,280.032210
3.4400,280.029925,280.034084
3.4410,280.029701,280.028817
3.4420,280.029333,280.028139
3.4430,280.028824,280.040012
3.4440,280.028182,280.037499
3.4450,280.027418,280.033830
3.4460,280.026541,280.031305
3.4470,280.025564,280.029972
3.4480,280.024501,280.030945
3.4490,280.023364,280.033765
3.4500,280.022169,280.021851
3.4510,280.020930,280.010585
3.4520,280.019662,280.019723
3.4530,280.018379,280.019065
3.4540,280.017093,280.022764
3.4550,280.015819,280.011678
3.4560,280.014566,280.005976
3.4570,280.013346,280.005306
3.4580,280.012167,280.009396
3.4590,280.011036,280.004148
3.4600,280.009961,280.010914
3.4610,280.008946,280.016167
3.4620,280.007994,280.021336
3.4630,280.007108,280.012527
3.4640,280.006288,280.003981
3.4650,280.005536,280.012158
3.4660,280.004849,280.003152
3.4670,280.004226,280.012034
3.4680,280.003665,280.013829
3.4690,280.003162,280.010230
3.4700,280.002715,279.997357
3.4710,280.002319,279.994192
3.4720,280.001971,279.994826
3.4730,280.001667,279.996559
3.4740,280.001403,279.984684
3.4750,280.001175,279.995592
3.4760,280.000979,279.991560
3.4770,280.000812,279.993174
3.4780,280.000669,279.991861
3.4790,280.000000,279.988128
3.4800,280.000000,280.002030
3.4810,280.000000,280.009428
3.4820,280.000000,279.999818
3.4830,280.000000,280.005004
3.4840,280.000000,280.007413
3.4850,280.000000,280.005803
3.4860,280.000000,280.011786
3.4870,280.000000,280.007692
3.4880,280.000000,280.014168
3.4890,280.000000,280.002835
3.4900,280.000000,280.002405
3.4910,280.000000,279.997548
3.4920,280.000000,280.001236
3.4930,280.000000,279.997230
3.4940,280.000000,279.993990
3.4950,280.000000,279.994659
3.4960,280.000000,280.000368
3.4970,280.000000,279.987207
3.4980,280.000000,279.991263
3.4990,280.000000,279.997684
3.5000,279.993763,279.998846
3.5010,279.987798,279.984676
3.5020,279.982366,279.985429
3.5030,279.977706,279.979173
3.5040,279.974019,279.991525
3.5050,279.971468,279.979099
3.5060,279.970164,279.973963
3.5070,279.975659,279.983577
3.5080,279.981877,279.986062
3.5090,279.992672,280.006088
3.5100,280.009325,280.009811
3.5110,280.033070,280.033193
3.5120,280.064711,280.050402
3.5130,280.104126,280.095558
3.5140,280.149806,280.142610
3.5150,280.192354,280.185119
3.5160,280.233640,280.224803
3.5170,280.268452,280.266135
3.5180,280.291781,280.284566
3.5190,280.300000,280.294605
3.5200,280.291781,280.291367
3.5210,280.268452,280.273485
3.5220,280.233640,280.231437
3.5230,280.192354,280.199683
3.5240,280.149806,280.157693
3.5250,280.110364,280.118712
3.5260,280.076913,280.078272
3.5270,280.050704,280.053197
3.5280,280.031620,280.034600
3.5290,280.018653,280.021002
3.5300,280.010409,280.009678
3.5310,280.000000,279.999595
3.5320,280.000000,279.996791
3.5330,280.000000,279.988963
3.5340,280.000000,279.995017
3.5350,280.000000,279.990901
3.5360,280.000000,279.999452
3.5370,280.000000,279.992438
3.5380,280.000000,279.989818
3.5390,279.955000,279.949649
3.5400,279.961268,279.965183
3.5410,279.966663,279.977955
3.5420,279.971307,279.976516
3.5430,279.975303,279.984904
3.5440,279.978744,279.977452
3.5450,279.981704,279.987882
3.5460,279.984253,279.992920
3.5470,279.986446,279.993502
3.5480,279.988334,279.986266
3.5490,279.989959,279.988704
3.5500,279.991358,279.984842
3.5510,279.992562,279.990523
3.5520,279.993598,279.985274
3.5530,279.994489,279.992480
3.5540,279.995257,279.979830
3.5550,279.995918,279.990972
3.5560,279.996486,279.979313
3.5570,279.996976,279.997921
3.5580,279.997397,279.991215
3.5590,280.000000,279.997231
3.5600,280.000000,279.998470
3.5610,280.000000,280.015392
3.5620,280.000000,280.001698
3.5630,280.000000,280.007401
3.5640,280.000000,280.009070
3.5650,280.000000,280.001983
3.5660,280.000000,280.012997
3.5670,280.000000,279.994202
3.5680,280.000000,280.001469
3.5690,280.000000,280.001040
3.5700,280.000000,279.998344
3.5710,280.000000,279.995003
3.5720,280.000000,279.991096
3.5730,280.000000,279.996218
3.5740,280.000000,279.991773
3.5750,280.000000,279.993741
3.5760,280.000000,279.997835
3.5770,280.000000,279.986491
3.5780,280.000000,279.997676
3.5790,280.000000,279.997708
3.5800,280.000000,279.997977
3.5810,280.000000,280.002323
3.5820,280.000000,280.002695
3.5830,280.000000,280.008029
3.5840,280.000000,280.009709
3.5850,280.000000,280.007108
3.5860,280.000000,280.001920
3.5870,280.000000,280.003956
3.5880,280.000000,279.993474
3.5890,280.000000,280.004515
3.5900,280.000000,280.000834
3.5910,280.000000,279.998637
3.5920,280.000000,279.993654
3.5930,280.000000,280.003217
3.5940,280.000000,280.002198
3.5950,280.000000,279.998548
3.5960,280.000000,279.989237
3.5970,280.000000,279.992610
3.5980,280.000000,280.000391
3.5990,280.001648,279.998721
3.6000,280.001821,280.007640
3.6010,280.002008,279.996159
3.6020,280.002213,279.996248
3.6030,280.002435,280.015107
3.6040,280.002676,280.015753
3.6050,280.002937,280.006104
3.6060,280.003219,280.014456
3.6070,280.003525,280.012347
3.6080,280.003854,280.009171
3.6090,280.004209,280.010654
3.6100,280.004591,279.999496
3.6110,280.005002,279.998729
3.6120,280.005442,280.000983
3.6130,280.005914,280.004818
3.6140,280.006419,280.002876
3.6150,280.006957,279.999858
3.6160,280.007532,279.999921
3.6170,280.008144,280.004427
3.6180,280.008795,280.008838
3.6190,280.009486,280.013061
3.6200,280.010218,280.002144
3.6210,280.010994,280.007957
3.6220,280.011813,280.012760
3.6230,280.012677,280.023178
3.6240,280.013588,280.018171
3.6250,280.014546,280.009732
3.6260,280.015552,280.022537
3.6270,280.016607,280.017398
3.6280,280.017711,280.017600
3.6290,280.018865,280.012923
3.6300,280.020069,280.018289
3.6310,280.021323,280.015121
3.6320,280.022628,280.010551
3.6330,280.023982,280.024400
3.6340,280.025386,280.019234
3.6350,280.026838,280.021329
3.6360,280.028337,280.014298
3.6370,280.029884,280.021869
3.6380,280.031475,280.029997
3.6390,280.033109,280.020079
3.6400,280.034785,280.035899
3.6410,280.036500,280.040474
3.6420,280.038252,280.043318
3.6430,280.040037,280.046034
3.6440,280.041854,280.045352
3.6450,280.043698,280.044743
3.6460,280.045567,280.040974
3.6470,280.047456,280.059050
3.6480,280.049362,280.053548
3.6490,280.051280,280.045904
3.6500,280.053207,280.052332
3.6510,280.055136,280.050472
3.6520,280.057065,280.055973
3.6530,280.058987,280.052415
3.6540,280.060897,280.049608
3.6550,280.062791,280.062488
3.6560,280.064663,280.059921
3.6570,280.066507,280.069023
3.6580,280.068319,280.061678
3.6590,280.070092,280.073661
3.6600,280.071822,280.069374
3.6610,280.073502,280.072830
3.6620,280.075127,280.076725
3.6630,280.076693,280.083624
3.6640,280.078193,280.083878
3.6650,280.079624,280.086632
3.6660,280.080979,280.077897
3.6670,280.082254,280.082649
3.6680,280.083445,280.092952
3.6690,280.084547,280.092147
3.6700,280.085557,280.078896
3.6710,280.086471,280.088169
3.6720,280.087286,280.082800
3.6730,280.087998,280.080974
3.6740,280.088605,280.077291
3.6750,280.089104,280.073135
3.6760,280.089495,280.077825
3.6770,280.089775,280.083659
3.6780,280.089944,280.085634
3.6790,280.090000,280.092300
3.6800,280.089944,280.090447
3.6810,280.089775,280.086145
3.6820,280.089495,280.087113
3.6830,280.089104,280.098956
3.6840,280.088605,280.097309
3.6850,280.087998,280.092330
3.6860,280.087286,280.095092
3.6870,280.086471,280.094999
3.6880,280.085557,280.079650
3.6890,280.084547,280.081777
3.6900,280.083445,280.079423
3.6910,280.082254,280.074130
3.6920,280.080979,280.074056
3.6930,280.079624,280.076405
3.6940,280.078193,280.069059
3.6950,280.076693,280.074854
3.6960,280.075127,280.066583
3.6970,280.073502,280.068060
3.6980,280.071822,280.063811
3.6990,280.070092,280.066128
3.7000,280.068319,280.065308
3.7010,280.066507,280.066718
3.7020,280.064663,280.061122
3.7030,280.062791,280.058364
3.7040,280.060897,280.057044
3.7050,280.058987,280.067344
3.7060,280.057065,280.059569
3.7070,280.055136,280.061747
3.7080,280.053207,280.053037
3.7090,280.051280,280.051117
3.7100,280.049362,280.052330
3.7110,280.047456,280.050382
3.7120,280.045567,280.045160
3.7130,280.043698,280.035335
3.7140,280.041854,280.024717
3.7150,280.040037,280.025418
3.7160,280.038252,280.032634
3.7170,280.036500,280.027123
3.7180,280.034785,280.023998
3.7190,280.033109,280.032940
3.7200,280.031475,280.041455
3.7210,280.029884,280.030639
3.7220,280.028337,280.025827
3.7230,280.026838,280.029870
3.7240,280.025386,280.024731
3.7250,280.023982,280.029355
3.7260,280.022628,280.032401
3.7270,280.021323,280.026426
3.7280,280.020069,280.021959
3.7290,280.018865,280.021221
3.7300,280.017711,280.010347
3.7310,280.016607,280.017093
3.7320,280.015552,280.010685
3.7330,280.014546,280.010066
3.7340,280.013588,280.010241
3.7350,280.012677,280.004078
3.7360,280.011813,280.007731
3.7370,280.010994,280.008054
3.7380,280.010218,280.005728
3.7390,280.009486,280.014311
3.7400,280.008795,280.001421
3.7410,280.008144,280.011584
3.7420,280.007532,280.002265
3.7430,280.006957,280.007847
3.7440,280.006419,280.010789
3.7450,280.005914,280.006675
3.7460,280.005442,280.013545
3.7470,280.005002,280.016941
3.7480,280.004591,280.013964
3.7490,280.004209,280.004636
3.7500,280.003854,280.011547
3.7510,280.003525,279.998906
3.7520,280.003219,280.004674
3.7530,280.002937,279.992339
3.7540,280.002676,279.985707
3.7550,280.002435,279.997400
3.7560,280.002213,279.998653
3.7570,280.002008,280.003604
3.7580,280.001821,280.001848
3.7590,280.000000,280.000539
3.7600,280.000000,280.005554
3.7610,280.000000,279.993266
3.7620,280.000000,280.001626
3.7630,280.000000,280.004874
3.7640,280.000000,280.006618
3.7650,280.000000,280.007347
3.7660,280.000000,280.003188
3.7670,280.000000,280.007347
3.7680,280.000000,280.009943
3.7690,280.000000,279.997416
3.7700,280.000000,279.985836
3.7710,280.000000,280.010080
3.7720,280.000000,279.992634
3.7730,280.000000,279.989404
3.7740,280.000000,279.983776
3.7750,280.000000,279.993769
3.7760,280.000000,279.992991
3.7770,280.000000,280.002446
3.7780,280.000000,279.994631
3.7790,280.000000,280.002851
3.7800,280.000000,279.997757
3.7810,280.000000,279.994976
3.7820,280.000000,279.997418
3.7830,280.000000,280.003560
3.7840,280.000000,280.001697
3.7850,280.000000,280.000785
3.7860,280.000000,280.008865
3.7870,280.000000,279.998302
3.7880,280.000000,279.999694
3.7890,280.000000,280.005819
3.7900,280.000000,279.999795
3.7910,280.000000,279.999416
3.7920,280.000000,280.009258
3.7930,280.000000,279.988607
3.7940,280.000000,279.985211
3.7950,280.000000,280.000693
3.7960,280.000000,279.990153
3.7970,280.000000,279.996755
3.7980,280.000000,279.997027
3.7990,280.000000,279.997004
3.8000,280.000000,279.998285
3.8010,280.000000,280.003370
3.8020,280.000000,280.006397
3.8030,280.000000,279.999541
3.8040,280.000000,280.009179
3.8050,280.000000,280.004559
3.8060,280.000000,280.011031
3.8070,280.000000,279.998830
3.8080,280.000000,280.005172
3.8090,280.000000,280.002213
3.8100,280.000000,280.000484
3.8110,280.000000,279.998391
3.8120,280.000000,279.990230
3.8130,280.000000,279.995725
3.8140,280.000000,279.991031
3.8150,280.000000,279.990255
3.8160,280.000000,279.983306
3.8170,280.000000,279.992323
3.8180,280.000000,280.000418
3.8190,280.000000,279.994241
3.8200,280.000000,279.998781
3.8210,280.000000,279.993664
3.8220,280.000000,279.994884
3.8230,280.000000,280.005281
3.8240,280.000000,280.001223
3.8250,280.000000,280.005324
3.8260,280.000000,280.012494
3.8270,280.000000,280.008332
3.8280,280.000000,279.993079
3.8290,280.000000,279.996608
3.8300,280.000000,280.000687
3.8310,280.000000,280.005352
3.8320,280.000000,279.994014
3.8330,280.000000,279.994272
3.8340,280.000000,279.984231
3.8350,280.000000,279.987999
3.8360,280.000000,279.991820
3.8370,280.000000,279.990945
3.8380,280.000000,279.995217
3.8390,280.000000,279.996075
3.8400,280.000000,279.999931
3.8410,280.000000,280.000210
3.8420,280.000000,280.004172
3.8430,280.000000,280.005442
3.8440,280.000000,280.004615
3.8450,280.000000,280.004975
3.8460,280.000000,280.002430
3.8470,280.000000,280.003714
3.8480,280.000000,279.997172
3.8490,280.000000,280.004120
3.8500,280.000000,280.008265
3.8510,280.000000,280.002954
3.8520,280.000000,279.995751
3.8530,280.000000,279.990007
3.8540,280.000000,279.992222
3.8550,280.000000,279.991039
3.8560,280.000000,280.011832
3.8570,280.000000,279.986639
3.8580,280.000000,279.993128
3.8590,280.000000,279.999008
3.8600,280.000000,279.995203
3.8610,280.000000,280.005367
3.8620,280.000000,280.006647
3.8630,280.000000,280.002578
3.8640,280.000000,280.005954
3.8650,280.000000,280.008495
3.8660,280.000000,280.008478
3.8670,280.000000,280.003416
3.8680,280.000000,280.009671
3.8690,280.000000,280.005617
3.8700,280.000000,279.998576
3.8710,280.000000,279.999002
3.8720,280.000000,279.988160
3.8730,280.000000,279.980252
3.8740,280.000000,279.994724
3.8750,280.000000,279.998797
3.8760,280.000000,279.988246
3.8770,280.000000,280.000480
3.8780,280.000000,279.993389
3.8790,280.000000,279.990296
3.8800,280.000000,279.997969
3.8810,280.000000,279.992853
3.8820,280.000000,280.007470
3.8830,280.000000,280.004735
3.8840,280.000000,279.998276
3.8850,280.000000,280.002930
3.8860,280.000000,280.009558
3.8870,280.000000,280.003483
3.8880,280.000000,280.001257
3.8890,280.000000,279.995108
3.8900,280.000000,280.005570
3.8910,280.000000,279.992258
3.8920,280.000000,279.992278
3.8930,280.000000,279.982900
3.8940,280.000000,279.990002
3.8950,280.000000,279.989287
3.8960,280.000000,279.988203
3.8970,280.000000,279.993114
3.8980,280.000000,279.993845
3.8990,280.000000,279.997108
3.9000,280.000000,280.002433
3.9010,280.000000,280.000040
3.9020,280.000000,280.000890
3.9030,280.000000,280.000032
3.9040,280.000000,279.999647
3.9050,280.000000,280.012486
3.9060,280.000000,280.003638
3.9070,280.000000,280.003236
3.9080,280.000000,280.008389
3.9090,280.000000,279.993318
3.9100,280.000000,280.002529
3.9110,280.000000,279.994944
3.9120,280.000000,279.991623
3.9130,280.000000,279.992742
3.9140,280.000000,279.995074
3.9150,280.000000,279.992714
3.9160,280.000000,279.989702
3.9170,280.000000,280.000055
3.9180,280.000000,279.993571
3.9190,280.000000,279.985795
3.9200,280.000000,279.994542
3.9210,280.000000,279.997555
3.9220,280.000000,279.999596
3.9230,280.000000,280.003412
3.9240,280.000000,280.001940
3.9250,280.000000,280.001308
3.9260,280.000000,279.993795
3.9270,280.000000,280.000815
3.9280,280.000000,280.006553
3.9290,280.000000,279.998688
3.9300,280.000000,279.993826
3.9310,280.000000,279.994307
3.9320,280.000000,279.994189
3.9330,280.000000,279.987053
3.9340,280.000000,279.993080
3.9350,280.000000,279.993132
3.9360,280.000000,279.988668
3.9370,280.000000,279.981430
3.9380,280.000000,279.988132
3.9390,280.000000,279.997712
3.9400,280.000000,279.998146
3.9410,280.000000,279.994804
3.9420,280.000000,280.005642
3.9430,280.000000,280.008335
3.9440,280.000000,279.997457
3.9450,280.000000,280.003166
3.9460,280.000000,280.003638
3.9470,280.000000,280.008129
3.9480,280.000000,279.999864
3.9490,280.000000,279.994009
3.9500,280.000000,279.996604
3.9510,280.000000,279.988864
3.9520,280.000000,280.000183
3.9530,280.000000,280.000965
3.9540,280.000000,279.991291
3.9550,280.000000,279.992606
3.9560,280.000000,279.993693
3.9570,280.000000,279.996601
3.9580,280.000000,279.991177
3.9590,280.000000,280.004411
3.9600,280.000000,279.998938
3.9610,280.000000,280.004074
3.9620,280.000000,280.002277
3.9630,280.000000,280.002290
3.9640,280.000000,280.007104
3.9650,280.000000,279.998820
3.9660,280.000000,279.997386
3.9670,280.000000,279.999805
3.9680,280.000000,280.004871
3.9690,280.000000,280.003628
3.9700,280.000000,279.995676
3.9710,280.000000,280.001980
3.9720,280.000000,279.995221
3.9730,280.000000,279.988643
3.9740,280.000000,279.991602
3.9750,280.000000,279.996146
3.9760,280.000000,279.989813
3.9770,280.000000,279.992257
3.9780,280.000000,279.988993
3.9790,280.000000,279.991664
3.9800,280.000000,279.996600
3.9810,280.000000,279.992271
3.9820,280.000000,279.998128
3.9830,280.000000,280.002579
3.9840,280.000000,280.001754
3.9850,280.000000,279.988876
3.9860,280.000000,279.997200
3.9870,280.000000,280.000044
3.9880,280.000000,280.006998
3.9890,280.000000,280.004682
3.9900,280.000000,279.992490
3.9910,280.000000,279.999778
3.9920,280.000000,279.994549
3.9930,280.000000,279.991511
3.9940,280.000000,279.984975
3.9950,280.000000,279.993365
3.9960,280.000000,279.994883
3.9970,280.000000,279.986819
3.9980,280.000000,279.988413
3.9990,280.000000,279.993379
4.0000,280.000000,279.996369
4.0010,280.000000,279.996405
4.0020,280.000000,279.994941
4.0030,280.000000,280.005476
4.0040,280.000000,280.009238
4.0050,280.000000,280.000562
4.0060,280.000000,280.006871
4.0070,280.000000,280.001217
4.0080,280.000000,279.991661
4.0090,280.000000,279.988519
4.0100,280.000000,279.995761
4.0110,280.000000,280.005093
4.0120,280.000000,279.995405
4.0130,280.000000,279.985813
4.0140,280.000000,279.995844
4.0150,280.000000,279.985812
4.0160,280.000000,279.999073
4.0170,280.000000,279.996549
4.0180,280.000000,279.991791
4.0190,280.000000,279.998109
4.0200,280.000000,279.996821
4.0210,280.000000,280.000117
4.0220,280.000000,280.008279
4.0230,280.000000,279.996120
4.0240,280.000000,280.008141
4.0250,280.000000,279.990603
4.0260,280.000000,279.993615
4.0270,280.000000,279.998487
4.0280,280.000000,280.004461
4.0290,280.000000,279.987532
4.0300,280.000000,280.004046
4.0310,280.000000,279.993798
4.0320,280.000000,279.996309
4.0330,280.000000,279.983694
4.0340,280.000000,279.986977
4.0350,280.000000,279.988443
4.0360,280.000000,279.982674
4.0370,280.000000,279.993930
4.0380,280.000000,279.989049
4.0390,280.000000,279.997745
4.0400,280.000000,279.994170
4.0410,280.000000,279.998087
4.0420,280.000000,279.990210
4.0430,280.000000,280.002845
4.0440,280.000000,280.015132
4.0450,280.000000,279.994404
4.0460,280.000000,280.002272
4.0470,280.000000,280.000319
4.0480,280.000000,280.005871
4.0490,280.000000,279.990285
4.0500,280.000000,279.995124
4.0510,280.000000,279.998259
4.0520,280.000000,279.990834
4.0530,280.000000,279.988299
4.0540,280.000000,279.993445
4.0550,280.000000,279.998491
4.0560,280.000000,279.989815
4.0570,280.000000,279.996456
4.0580,280.000000,279.986980
4.0590,280.000000,279.994229
4.0600,280.000000,279.991144
4.0610,280.000000,279.994413
4.0620,280.000000,279.998464
4.0630,280.000000,279.997981
4.0640,280.000000,280.005350
4.0650,280.000000,280.003252
4.0660,280.000000,279.994813
4.0670,280.000000,279.999310
4.0680,280.000000,279.994091
4.0690,280.000000,279.996504
4.0700,280.000000,279.995631
4.0710,280.000000,279.992381
4.0720,280.000000,279.989713
4.0730,280.000000,279.992413
4.0740,280.000000,279.982032
4.0750,280.000000,279.991941
4.0760,280.000000,279.983666
4.0770,280.000000,279.991472
4.0780,280.000000,279.992950
4.0790,280.000000,279.990722
4.0800,280.000000,279.997010
4.0810,280.000000,279.993461
4.0820,280.000000,279.993049
4.0830,280.000000,279.993812
4.0840,280.000000,280.006182
4.0850,280.000000,280.002860
4.0860,280.000000,280.004146
4.0870,280.000000,280.006094
4.0880,280.000000,279.991997
4.0890,280.000000,279.993199
4.0900,280.000000,279.997701
4.0910,280.000000,279.995804
4.0920,280.000000,279.995134
4.0930,280.000000,279.984825
4.0940,280.000000,279.989766
4.0950,280.000000,279.986711
4.0960,280.000000,279.994692
4.0970,280.000000,279.996646
4.0980,280.000000,279.993967
4.0990,280.000000,279.994812
4.1000,280.000000,279.990115
4.1010,280.000000,279.992324
4.1020,280.000000,280.003293
4.1030,280.000000,280.002058
4.1040,280.000000,279.997664
4.1050,280.000000,280.004019
4.1060,280.000000,279.992784
4.1070,280.000000,279.997803
4.1080,280.000000,279.999875
4.1090,280.000000,280.004623
4.1100,280.000000,279.995757
4.1110,280.000000,279.997897
4.1120,280.000000,279.988873
4.1130,280.000000,279.986300
4.1140,280.000000,279.984866
4.1150,280.000000,279.995512
4.1160,280.000000,279.989913
4.1170,280.000000,279.987047
4.1180,280.000000,279.986916
4.1190,280.000000,279.995499
4.1200,280.000000,279.986403
4.1210,280.000000,279.985686
4.1220,280.000000,280.001720
4.1230,280.000000,280.000875
4.1240,280.000000,280.002405
4.1250,280.000000,280.012891
4.1260,280.000000,280.002969
4.1270,280.000000,280.004010
4.1280,280.000000,279.990894
4.1290,280.000000,279.998904
4.1300,280.000000,279.988621
4.1310,280.000000,279.993629
4.1320,280.000000,279.984795
4.1330,280.000000,279.994360
4.1340,280.000000,279.993025
4.1350,280.000000,279.984116
