time_s,ecg_clean_mv,ecg_noisy_mv
0.0000,250.000000,249.967734
0.0010,250.001465,249.988301
0.0020,250.001785,250.008982
0.0030,250.002164,250.012967
0.0040,250.002610,250.026115
0.0050,250.003133,250.026842
0.0060,250.003742,249.993303
0.0070,250.004446,250.026225
0.0080,250.005257,250.018547
0.0090,250.006184,250.021836
0.0100,250.007239,250.024750
0.0110,250.008432,250.003003
0.0120,250.009772,250.020861
0.0130,250.011269,249.986944
0.0140,250.012930,249.985638
0.0150,250.014762,250.007455
0.0160,250.016769,249.998433
0.0170,250.018954,250.012498
0.0180,250.021317,250.044522
0.0190,250.023856,250.027679
0.0200,250.026563,250.032761
0.0210,250.029430,250.024503
0.0220,250.032444,250.019666
0.0230,250.035589,250.050912
0.0240,250.038843,250.073681
0.0250,250.042183,250.057108
0.0260,250.045583,250.070741
0.0270,250.049010,250.087422
0.0280,250.052433,250.087081
0.0290,250.055814,250.071562
0.0300,250.059117,250.066191
0.0310,250.062304,250.039253
0.0320,250.065335,250.051301
0.0330,250.068172,250.055990
0.0340,250.070776,250.047899
0.0350,250.073114,250.066117
0.0360,250.075153,250.094037
0.0370,250.076863,250.092262
0.0380,250.078220,250.078201
0.0390,250.079204,250.091829
0.0400,250.079800,250.074899
0.0410,250.080000,250.113084
0.0420,250.079800,250.072105
0.0430,250.079204,250.112320
0.0440,250.078220,250.107501
0.0450,250.076863,250.088306
0.0460,250.075153,250.094169
0.0470,250.073114,250.076127
0.0480,250.070776,250.071038
0.0490,250.068172,250.056632
0.0500,250.065335,250.084380
0.0510,250.062304,250.083123
0.0520,250.059117,250.025119
0.0530,250.055814,250.078428
0.0540,250.052433,250.045170
0.0550,250.049010,250.045642
0.0560,250.045583,250.016714
0.0570,250.042183,250.057637
0.0580,250.038843,250.041177
0.0590,250.035589,250.056612
0.0600,250.032444,250.059793
0.0610,250.029430,250.063584
0.0620,250.026563,250.035580
0.0630,250.023856,250.043167
0.0640,250.021317,250.036995
0.0650,250.018954,250.058167
0.0660,250.016769,250.046916
0.0670,250.014762,250.053830
0.0680,250.012930,250.049262
0.0690,250.011269,250.000691
0.0700,250.009772,250.040570
0.0710,250.008432,250.028437
0.0720,250.007239,250.003133
0.0730,250.006184,250.009473
0.0740,250.005257,249.999321
0.0750,250.004446,250.008973
0.0760,250.003742,249.994390
0.0770,250.003133,250.008959
0.0780,250.002610,250.005951
0.0790,250.002164,250.002622
0.0800,250.001785,250.016672
0.0810,250.000000,250.057726
0.0820,250.000000,250.011456
0.0830,250.000000,250.021679
0.0840,250.000000,250.017829
0.0850,250.000000,250.020335
0.0860,250.000000,250.040387
0.0870,250.000000,250.036765
0.0880,250.000000,250.022549
0.0890,250.000000,250.033720
0.0900,250.000000,250.025433
0.0910,250.000000,250.006301
0.0920,250.000000,249.981417
0.0930,250.000000,250.013482
0.0940,250.000000,250.001457
0.0950,250.000000,249.998611
0.0960,250.000000,249.992220
0.0970,250.000000,250.012802
0.0980,250.000000,250.010548
0.0990,250.000000,250.006378
0.1000,250.000000,249.996642
0.1010,250.000000,250.036136
0.1020,249.983367,250.017167
0.1030,249.967461,249.999708
0.1040,249.952977,249.943963
0.1050,249.940548,249.971749
0.1060,249.930718,249.958235
0.1070,249.923915,249.943649
0.1080,249.920438,249.957372
0.1090,249.935091,249.967123
0.1100,249.951673,249.974739
0.1110,249.980459,250.007745
0.1120,250.024868,250.016940
0.1130,250.088188,250.085398
0.1140,250.172562,250.175575
0.1150,250.277671,250.269597
0.1160,250.399481,250.412578
0.1170,250.512944,250.509721
0.1180,250.623041,250.650814
0.1190,250.715871,250.714811
0.1200,250.778084,250.828063
0.1210,250.800000,250.853531
0.1220,250.778084,250.804363
0.1230,250.715871,250.764453
0.1240,250.623041,250.650844
0.1250,250.512944,250.562884
0.1260,250.399481,250.430948
0.1270,250.294304,250.307003
0.1280,250.205101,250.180698
0.1290,250.135211,250.155457
0.1300,250.084319,250.107987
0.1310,250.049741,250.084381
0.1320,250.027757,250.038679
0.1330,250.000000,250.022024
0.1340,250.000000,249.998047
0.1350,250.000000,249.999161
0.1360,250.000000,250.020962
0.1370,250.000000,249.970602
0.1380,250.000000,250.011454
0.1390,250.000000,250.009868
0.1400,250.000000,250.041368
0.1410,249.880000,249.898127
0.1420,249.896715,249.935122
0.1430,249.911102,249.959270
0.1440,249.923485,249.937861
0.1450,249.934143,249.969748
0.1460,249.943316,249.973902
0.1470,249.951212,250.000341
0.1480,249.958007,249.999676
0.1490,249.963857,249.987588
0.1500,249.968891,249.975612
0.1510,249.973224,250.006431
0.1520,249.976954,249.989260
0.1530,249.980164,249.965817
0.1540,249.982927,249.967744
0.1550,249.985305,249.999036
0.1560,249.987352,249.976311
0.1570,249.989114,250.027524
0.1580,249.990630,249.990776
0.1590,249.991935,250.010739
0.1600,249.993059,250.019345
0.1610,250.000000,250.018050
0.1620,250.000000,250.000000
0.1630,250.000000,250.040147
0.1640,250.000000,250.028404
0.1650,250.000000,250.042380
0.1660,250.000000,250.038160
0.1670,250.000000,250.041818
0.1680,250.000000,250.057903
0.1690,250.000000,250.021968
0.1700,250.000000,250.018330
0.1710,250.000000,249.995577
0.1720,250.000000,250.013322
0.1730,250.000000,250.019004
0.1740,250.000000,250.003477
0.1750,250.000000,250.016338
0.1760,250.000000,250.008358
0.1770,250.000000,249.993905
0.1780,250.000000,250.021804
0.1790,250.000000,250.018642
0.1800,250.000000,250.028661
0.1810,250.000000,250.023405
0.1820,250.000000,250.026684
0.1830,250.000000,250.042561
0.1840,250.000000,250.039159
0.1850,250.000000,250.069410
0.1860,250.000000,250.054889
0.1870,250.000000,250.048955
0.1880,250.000000,250.034723
0.1890,250.000000,250.002680
0.1900,250.000000,250.016157
0.1910,250.000000,250.013762
0.1920,250.000000,250.015031
0.1930,250.000000,250.015260
0.1940,250.000000,250.023474
0.1950,250.000000,250.017091
0.1960,250.000000,250.031309
0.1970,250.000000,250.011660
0.1980,250.000000,250.023880
0.1990,250.000000,250.029785
0.2000,250.000000,250.033401
0.2010,250.004396,250.058428
0.2020,250.004855,250.056320
0.2030,250.005356,250.028656
0.2040,250.005900,250.049694
0.2050,250.006492,250.052718
0.2060,250.007135,250.085204
0.2070,250.007831,250.046552
0.2080,250.008585,250.034119
0.2090,250.009399,250.051929
0.2100,250.010278,250.048887
0.2110,250.011225,250.036471
0.2120,250.012244,250.030976
0.2130,250.013338,250.046212
0.2140,250.014513,250.018219
0.2150,250.015770,250.026527
0.2160,250.017116,250.026080
0.2170,250.018553,250.054174
0.2180,250.020086,250.047263
0.2190,250.021718,250.033241
0.2200,250.023453,250.041571
0.2210,250.025296,250.091069
0.2220,250.027249,250.085772
0.2230,250.029316,250.087897
0.2240,250.031501,250.080057
0.2250,250.033806,250.105731
0.2260,250.036235,250.068341
0.2270,250.038789,250.096611
0.2280,250.041472,250.077953
0.2290,250.044285,250.079363
0.2300,250.047229,250.092126
0.2310,250.050307,250.077361
0.2320,250.053518,250.071886
0.2330,250.056863,250.070926
0.2340,250.060341,250.049906
0.2350,250.063952,250.094119
0.2360,250.067695,250.072239
0.2370,250.071567,250.121501
0.2380,250.075567,250.096991
0.2390,250.079690,250.129672
0.2400,250.083933,250.092223
0.2410,250.088291,250.139775
0.2420,250.092760,250.152701
0.2430,250.097333,250.165681
0.2440,250.102004,250.130291
0.2450,250.106766,250.148357
0.2460,250.111610,250.171748
0.2470,250.116529,250.168113
0.2480,250.121512,250.171871
0.2490,250.126550,250.162785
0.2500,250.131632,250.191730
0.2510,250.136748,250.207906
0.2520,250.141885,250.171156
0.2530,250.147030,250.178144
0.2540,250.152172,250.175196
0.2550,250.157298,250.198095
0.2560,250.162392,250.197289
0.2570,250.167442,250.176319
0.2580,250.172434,250.191795
0.2590,250.177352,250.195365
0.2600,250.182183,250.260842
0.2610,250.186912,250.239762
0.2620,250.191524,250.230509
0.2630,250.196005,250.237470
0.2640,250.200340,250.266429
0.2650,250.204515,250.273022
0.2660,250.208516,250.274777
0.2670,250.212329,250.258102
0.2680,250.215943,250.269286
0.2690,250.219343,250.265441
0.2700,250.222519,250.248104
0.2710,250.225459,250.246385
0.2720,250.228152,250.264833
0.2730,250.230589,250.260637
0.2740,250.232761,250.266028
0.2750,250.234660,250.270847
0.2760,250.236279,250.284013
0.2770,250.237612,250.253627
0.2780,250.238654,250.279439
0.2790,250.239401,250.286569
0.2800,250.239850,250.276180
0.2810,250.240000,250.287922
0.2820,250.239850,250.286244
0.2830,250.239401,250.325399
0.2840,250.238654,250.297007
0.2850,250.237612,250.302085
0.2860,250.236279,250.289374
0.2870,250.234660,250.282386
0.2880,250.232761,250.264749
0.2890,250.230589,250.294282
0.2900,250.228152,250.282066
0.2910,250.225459,250.258522
0.2920,250.222519,250.242270
0.2930,250.219343,250.251895
0.2940,250.215943,250.236195
0.2950,250.212329,250.236070
0.2960,250.208516,250.217553
0.2970,250.204515,250.238170
0.2980,250.200340,250.237970
0.2990,250.196005,250.251098
0.3000,250.191524,250.233015
0.3010,250.186912,250.230741
0.3020,250.182183,250.212261
0.3030,250.177352,250.250971
0.3040,250.172434,250.245339
0.3050,250.167442,250.228305
0.3060,250.162392,250.202238
0.3070,250.157298,250.196726
0.3080,250.152172,250.198208
0.3090,250.147030,250.211426
0.3100,250.141885,250.191348
0.3110,250.136748,250.154646
0.3120,250.131632,250.173669
0.3130,250.126550,250.146532
0.3140,250.121512,250.144110
0.3150,250.116529,250.160887
0.3160,250.111610,250.153793
0.3170,250.106766,250.156270
0.3180,250.102004,250.138438
0.3190,250.097333,250.151954
0.3200,250.092760,250.130422
0.3210,250.088291,250.135960
0.3220,250.083933,250.135165
0.3230,250.079690,250.139848
0.3240,250.075567,250.118476
0.3250,250.071567,250.131316
0.3260,250.067695,250.151944
0.3270,250.063952,250.107899
0.3280,250.060341,250.097329
0.3290,250.056863,250.090733
0.3300,250.053518,250.141236
0.3310,250.050307,250.100258
0.3320,250.047229,250.081826
0.3330,250.044285,250.080554
0.3340,250.041472,250.077991
0.3350,250.038789,250.061636
0.3360,250.036235,250.061846
0.3370,250.033806,250.067215
0.3380,250.031501,250.060076
0.3390,250.029316,250.067401
0.3400,250.027249,250.081660
0.3410,250.025296,250.064530
0.3420,250.023453,250.121386
0.3430,250.021718,250.095470
0.3440,250.020086,250.065894
0.3450,250.018553,250.047158
0.3460,250.017116,250.071926
0.3470,250.015770,250.089017
0.3480,250.014513,250.081442
0.3490,250.013338,250.066919
0.3500,250.012244,250.053652
0.3510,250.011225,250.043279
0.3520,250.010278,250.045526
0.3530,250.009399,250.032091
0.3540,250.008585,250.038337
0.3550,250.007831,250.062878
0.3560,250.007135,250.031563
0.3570,250.006492,250.054055
0.3580,250.005900,250.059421
0.3590,250.005356,250.035821
0.3600,250.004855,250.043938
0.3610,250.000000,250.072841
0.3620,250.000000,250.047511
0.3630,250.000000,250.064204
0.3640,250.000000,250.098068
0.3650,250.000000,250.083078
0.3660,250.000000,250.069005
0.3670,250.000000,250.078194
0.3680,250.000000,250.061334
0.3690,250.000000,250.073115
0.3700,250.000000,250.022331
0.3710,250.000000,250.046121
0.3720,250.000000,250.012583
0.3730,250.000000,250.042887
0.3740,250.000000,250.034780
0.3750,250.000000,250.058078
0.3760,250.000000,250.049256
0.3770,250.000000,250.033088
0.3780,250.000000,250.038553
0.3790,250.000000,250.054945
0.3800,250.000000,250.045718
0.3810,250.000000,250.058892
0.3820,250.000000,250.083716
0.3830,250.000000,250.055195
0.3840,250.000000,250.063317
0.3850,250.000000,250.066331
0.3860,250.000000,250.117657
0.3870,250.000000,250.077264
0.3880,250.000000,250.081708
0.3890,250.000000,250.071915
0.3900,250.000000,250.068106
0.3910,250.000000,250.057861
0.3920,250.000000,250.051902
0.3930,250.000000,250.021248
0.3940,250.000000,250.046230
0.3950,250.000000,250.038580
0.3960,250.000000,250.049296
0.3970,250.000000,250.042449
0.3980,250.000000,250.058624
0.3990,250.000000,250.065861
0.4000,250.000000,250.013149
0.4010,250.000000,250.055393
0.4020,250.000000,250.038625
0.4030,250.000000,250.073735
0.4040,250.000000,250.068037
0.4050,250.000000,250.093793
0.4060,250.000000,250.075906
0.4070,250.000000,250.063366
0.4080,250.000000,250.081312
0.4090,250.000000,250.058124
0.4100,250.000000,250.050606
0.4110,250.000000,250.059160
0.4120,250.000000,250.073114
0.4130,250.000000,250.058306
0.4140,250.000000,250.051858
0.4150,250.000000,250.083958
0.4160,250.000000,250.032614
0.4170,250.000000,250.034675
0.4180,250.000000,250.051842
0.4190,250.000000,250.076967
0.4200,250.000000,250.045183
0.4210,250.000000,250.090693
0.4220,250.000000,250.047371
0.4230,250.000000,250.070801
0.4240,250.000000,250.077616
0.4250,250.000000,250.062680
0.4260,250.000000,250.065939
0.4270,250.000000,250.085057
0.4280,250.000000,250.091312
0.4290,250.000000,250.033631
0.4300,250.000000,250.063231
0.4310,250.000000,250.054004
0.4320,250.000000,250.052976
0.4330,250.000000,250.043195
0.4340,250.000000,250.026437
0.4350,250.000000,250.068266
0.4360,250.000000,250.063425
0.4370,250.000000,250.046869
0.4380,250.000000,250.044764
0.4390,250.000000,250.047527
0.4400,250.000000,250.022948
0.4410,250.000000,250.072104
0.4420,250.000000,250.083082
0.4430,250.000000,250.077105
0.4440,250.000000,250.076134
0.4450,250.000000,250.080332
0.4460,250.000000,250.064869
0.4470,250.000000,250.068020
0.4480,250.000000,250.069598
0.4490,250.000000,250.078201
0.4500,250.000000,250.083608
0.4510,250.000000,250.054663
0.4520,250.000000,250.038086
0.4530,250.000000,250.050871
0.4540,250.000000,250.078354
0.4550,250.000000,250.033150
0.4560,250.000000,250.061705
0.4570,250.000000,250.070847
0.4580,250.000000,250.049065
0.4590,250.000000,250.048532
0.4600,250.000000,250.072729
0.4610,250.000000,250.074464
0.4620,250.000000,250.084165
0.4630,250.000000,250.108505
0.4640,250.000000,250.082295
0.4650,250.000000,250.062806
0.4660,250.000000,250.081022
0.4670,250.000000,250.081489
0.4680,250.000000,250.093450
0.4690,250.000000,250.067147
0.4700,250.000000,250.059134
0.4710,250.000000,250.039873
0.4720,250.000000,250.064308
0.4730,250.000000,250.102895
0.4740,250.000000,250.047176
0.4750,250.000000,250.056626
0.4760,250.000000,250.042528
0.4770,250.000000,250.033913
0.4780,250.000000,250.063301
0.4790,250.000000,250.061785
0.4800,250.000000,250.030637
0.4810,250.000000,250.095630
0.4820,250.000000,250.082293
0.4830,250.000000,250.080816
0.4840,250.000000,250.075765
0.4850,250.000000,250.089070
0.4860,250.000000,250.089092
0.4870,250.000000,250.086182
0.4880,250.000000,250.092756
0.4890,250.000000,250.091818
0.4900,250.000000,250.097642
0.4910,250.000000,250.050174
0.4920,250.000000,250.049777
0.4930,250.000000,250.060369
0.4940,250.000000,250.041105
0.4950,250.000000,250.042850
0.4960,250.000000,250.060144
0.4970,250.000000,250.068913
0.4980,250.000000,250.078191
0.4990,250.000000,250.060735
0.5000,250.000000,250.075627
0.5010,250.000000,250.077377
0.5020,250.000000,250.078572
0.5030,250.000000,250.069718
0.5040,250.000000,250.070193
0.5050,250.000000,250.095236
0.5060,250.000000,250.072071
0.5070,250.000000,250.055747
0.5080,250.000000,250.078495
0.5090,250.000000,250.096450
0.5100,250.000000,250.027865
0.5110,250.000000,250.060628
0.5120,250.000000,250.070731
0.5130,250.000000,250.029820
0.5140,250.000000,250.051809
0.5150,250.000000,250.037244
0.5160,250.000000,250.040120
0.5170,250.000000,250.051573
0.5180,250.000000,250.044411
0.5190,250.000000,250.047733
0.5200,250.001465,250.071457
0.5210,250.001785,250.111125
0.5220,250.002164,250.094032
0.5230,250.002610,250.101918
0.5240,250.003133,250.101622
0.5250,250.003742,250.080700
0.5260,250.004446,250.095854
0.5270,250.005257,250.106303
0.5280,250.006184,250.099757
0.5290,250.007239,250.086952
0.5300,250.008432,250.088190
0.5310,250.009772,250.113835
0.5320,250.011269,250.086627
0.5330,250.012930,250.067536
0.5340,250.014762,250.070818
0.5350,250.016769,250.057447
0.5360,250.018954,250.111540
0.5370,250.021317,250.105134
0.5380,250.023856,250.088508
0.5390,250.026563,250.127245
0.5400,250.029430,250.111936
0.5410,250.032444,250.104051
0.5420,250.035589,250.131820
0.5430,250.038843,250.131102
0.5440,250.042183,250.143408
0.5450,250.045583,250.114591
0.5460,250.049010,250.125722
0.5470,250.052433,250.161458
0.5480,250.055814,250.164474
0.5490,250.059117,250.159251
0.5500,250.062304,250.169650
0.5510,250.065335,250.143221
0.5520,250.068172,250.140647
0.5530,250.070776,250.118511
0.5540,250.073114,250.123670
0.5550,250.075153,250.103913
0.5560,250.076863,250.131511
0.5570,250.078220,250.109188
0.5580,250.079204,250.160906
0.5590,250.079800,250.155677
0.5600,250.080000,250.124705
0.5610,250.079800,250.157096
0.5620,250.079204,250.193425
0.5630,250.078220,250.164683
0.5640,250.076863,250.152610
0.5650,250.075153,250.139977
0.5660,250.073114,250.137705
0.5670,250.070776,250.167564
0.5680,250.068172,250.146978
0.5690,250.065335,250.141026
0.5700,250.062304,250.131970
0.5710,250.059117,250.128282
0.5720,250.055814,250.104315
0.5730,250.052433,250.120643
0.5740,250.049010,250.088966
0.5750,250.045583,250.094858
0.5760,250.042183,250.118842
0.5770,250.038843,250.108355
0.5780,250.035589,250.113382
0.5790,250.032444,250.136768
0.5800,250.029430,250.105646
0.5810,250.026563,250.109039
0.5820,250.023856,250.106604
0.5830,250.021317,250.105018
0.5840,250.018954,250.096518
0.5850,250.016769,250.111634
0.5860,250.014762,250.113006
0.5870,250.012930,250.109836
0.5880,250.011269,250.099537
0.5890,250.009772,250.106605
0.5900,250.008432,250.086967
0.5910,250.007239,250.074346
0.5920,250.006184,250.061163
0.5930,250.005257,250.047463
0.5940,250.004446,250.089617
0.5950,250.003742,250.055834
0.5960,250.003133,250.052706
0.5970,250.002610,250.062174
0.5980,250.002164,250.067451
0.5990,250.001785,250.100382
0.6000,250.000000,250.074137
0.6010,250.000000,250.123600
0.6020,250.000000,250.089610
0.6030,250.000000,250.123145
0.6040,250.000000,250.108067
0.6050,250.000000,250.100952
0.6060,250.000000,250.118515
0.6070,250.000000,250.109503
0.6080,250.000000,250.098745
0.6090,250.000000,250.119623
0.6100,250.000000,250.072533
0.6110,250.000000,250.060235
0.6120,250.000000,250.060648
0.6130,250.000000,250.093630
0.6140,250.000000,250.086928
0.6150,250.000000,250.056598
0.6160,250.000000,250.030033
0.6170,250.000000,250.064631
0.6180,250.000000,250.056152
0.6190,250.000000,250.068495
0.6200,250.000000,250.065125
0.6210,249.983367,250.045202
0.6220,249.967461,250.086239
0.6230,249.952977,250.036884
0.6240,249.940548,250.058265
0.6250,249.930718,250.024798
0.6260,249.923915,250.003663
0.6270,249.920438,250.022602
0.6280,249.935091,250.020304
0.6290,249.951673,250.035276
0.6300,249.980459,250.064489
0.6310,250.024868,250.089687
0.6320,250.088188,250.136504
0.6330,250.172562,250.240976
0.6340,250.277671,250.359130
0.6350,250.399481,250.452265
0.6360,250.512944,250.582434
0.6370,250.623041,250.715166
0.6380,250.715871,250.787697
0.6390,250.778084,250.857096
0.6400,250.800000,250.883583
0.6410,250.778084,250.855636
0.6420,250.715871,250.793308
0.6430,250.623041,250.704167
0.6440,250.512944,250.616793
0.6450,250.399481,250.510047
0.6460,250.294304,250.404882
0.6470,250.205101,250.295740
0.6480,250.135211,250.244476
0.6490,250.084319,250.177422
0.6500,250.049741,250.134438
0.6510,250.027757,250.056446
0.6520,250.000000,250.062144
0.6530,250.000000,250.048136
0.6540,250.000000,250.078172
0.6550,250.000000,250.069495
0.6560,250.000000,250.052859
0.6570,250.000000,250.075863
0.6580,250.000000,250.053571
0.6590,250.000000,250.063813
0.6600,249.880000,249.953846
0.6610,249.896715,249.994346
0.6620,249.911102,250.026168
0.6630,249.923485,250.012394
0.6640,249.934143,250.054036
0.6650,249.943316,250.044951
0.6660,249.951212,250.054979
0.6670,249.958007,250.055088
0.6680,249.963857,250.055479
0.6690,249.968891,250.065686
0.6700,249.973224,250.069674
0.6710,249.976954,250.044169
0.6720,249.980164,250.053432
0.6730,249.982927,250.080617
0.6740,249.985305,250.058425
0.6750,249.987352,250.061414
0.6760,249.989114,250.077250
0.6770,249.990630,250.056094
0.6780,249.991935,250.068030
0.6790,249.993059,250.086458
0.6800,250.000000,250.104757
0.6810,250.000000,250.055722
0.6820,250.000000,250.084691
0.6830,250.000000,250.084387
0.6840,250.000000,250.099859
0.6850,250.000000,250.088741
0.6860,250.000000,250.111840
0.6870,250.000000,250.102273
0.6880,250.000000,250.109565
0.6890,250.000000,250.106143
0.6900,250.000000,250.097170
0.6910,250.000000,250.077082
0.6920,250.000000,250.079303
0.6930,250.000000,250.067366
0.6940,250.000000,250.051615
0.6950,250.000000,250.085689
0.6960,250.000000,250.070983
0.6970,250.000000,250.052057
0.6980,250.000000,250.086269
0.6990,250.000000,250.079394
0.7000,250.000000,250.056879
0.7010,250.000000,250.072192
0.7020,250.000000,250.086828
0.7030,250.000000,250.104112
0.7040,250.000000,250.115125
0.7050,250.000000,250.115472
0.7060,250.000000,250.112502
0.7070,250.000000,250.100749
0.7080,250.000000,250.123635
0.7090,250.000000,250.103916
0.7100,250.000000,250.091882
0.7110,250.000000,250.092181
0.7120,250.000000,250.073313
0.7130,250.000000,250.074976
0.7140,250.000000,250.042408
0.7150,250.000000,250.067129
0.7160,250.000000,250.100187
0.7170,250.000000,250.078363
0.7180,250.000000,250.081353
0.7190,250.000000,250.099266
0.7200,250.004396,250.099069
0.7210,250.004855,250.087383
0.7220,250.005356,250.104570
0.7230,250.005900,250.091346
0.7240,250.006492,250.114067
0.7250,250.007135,250.100246
0.7260,250.007831,250.126724
0.7270,250.008585,250.103700
0.7280,250.009399,250.096331
0.7290,250.010278,250.103501
0.7300,250.011225,250.106749
0.7310,250.012244,250.079306
0.7320,250.013338,250.086304
0.7330,250.014513,250.093407
0.7340,250.015770,250.110963
0.7350,250.017116,250.053591
0.7360,250.018553,250.103041
0.7370,250.020086,250.091937
0.7380,250.021718,250.095515
0.7390,250.023453,250.098984
0.7400,250.025296,250.110600
0.7410,250.027249,250.132339
0.7420,250.029316,250.121573
0.7430,250.031501,250.160299
0.7440,250.033806,250.149426
0.7450,250.036235,250.146320
0.7460,250.038789,250.142701
0.7470,250.041472,250.163519
0.7480,250.044285,250.165054
0.7490,250.047229,250.126147
0.7500,250.050307,250.131242
0.7510,250.053518,250.149625
0.7520,250.056863,250.153110
0.7530,250.060341,250.134562
0.7540,250.063952,250.129337
0.7550,250.067695,250.144681
0.7560,250.071567,250.170376
0.7570,250.075567,250.155181
0.7580,250.079690,250.143336
0.7590,250.083933,250.172710
0.7600,250.088291,250.192178
0.7610,250.092760,250.188396
0.7620,250.097333,250.217890
0.7630,250.102004,250.220282
0.7640,250.106766,250.213469
0.7650,250.111610,250.220737
0.7660,250.116529,250.196665
0.7670,250.121512,250.245221
0.7680,250.126550,250.223689
0.7690,250.131632,250.223320
0.7700,250.136748,250.221309
0.7710,250.141885,250.236665
0.7720,250.147030,250.213634
0.7730,250.152172,250.217469
0.7740,250.157298,250.234361
0.7750,250.162392,250.230127
0.7760,250.167442,250.250451
0.7770,250.172434,250.243903
0.7780,250.177352,250.285199
0.7790,250.182183,250.281030
0.7800,250.186912,250.290578
0.7810,250.191524,250.280910
0.7820,250.196005,250.335074
0.7830,250.200340,250.300341
0.7840,250.204515,250.302730
0.7850,250.208516,250.328885
0.7860,250.212329,250.324305
0.7870,250.215943,250.310504
0.7880,250.219343,250.355641
0.7890,250.222519,250.336114
0.7900,250.225459,250.319598
0.7910,250.228152,250.353365
0.7920,250.230589,250.327548
0.7930,250.232761,250.313901
0.7940,250.234660,250.347988
0.7950,250.236279,250.324548
0.7960,250.237612,250.326068
0.7970,250.238654,250.314419
0.7980,250.239401,250.325302
0.7990,250.239850,250.323370
0.8000,250.240000,250.356281
0.8010,250.239850,250.315398
0.8020,250.239401,250.364097
0.8030,250.238654,250.333301
0.8040,250.237612,250.346882
0.8050,250.236279,250.342832
0.8060,250.234660,250.337115
0.8070,250.232761,250.351150
0.8080,250.230589,250.335073
0.8090,250.228152,250.318296
0.8100,250.225459,250.323041
0.8110,250.222519,250.302464
0.8120,250.219343,250.297260
0.8130,250.215943,250.275984
0.8140,250.212329,250.285860
0.8150,250.208516,250.295488
0.8160,250.204515,250.285470
0.8170,250.200340,250.310293
0.8180,250.196005,250.321521
0.8190,250.191524,250.275401
0.8200,250.186912,250.270253
0.8210,250.182183,250.299971
0.8220,250.177352,250.287737
0.8230,250.172434,250.298424
0.8240,250.167442,250.284704
0.8250,250.162392,250.271594
0.8260,250.157298,250.265857
0.8270,250.152172,250.267835
0.8280,250.147030,250.249550
0.8290,250.141885,250.261457
0.8300,250.136748,250.213603
0.8310,250.131632,250.241344
0.8320,250.126550,250.185542
0.8330,250.121512,250.207295
0.8340,250.116529,250.192950
0.8350,250.111610,250.169522
0.8360,250.106766,250.157359
0.8370,250.102004,250.169360
0.8380,250.097333,250.185429
0.8390,250.092760,250.175650
0.8400,250.088291,250.169597
0.8410,250.083933,250.206133
0.8420,250.079690,250.167635
0.8430,250.075567,250.195773
0.8440,250.071567,250.170576
0.8450,250.067695,250.164030
0.8460,250.063952,250.167340
0.8470,250.060341,250.179863
0.8480,250.056863,250.143025
0.8490,250.053518,250.160154
0.8500,250.050307,250.133326
0.8510,250.047229,250.128054
0.8520,250.044285,250.138420
0.8530,250.041472,250.158710
0.8540,250.038789,250.107536
0.8550,250.036235,250.128711
0.8560,250.033806,250.111626
0.8570,250.031501,250.109212
0.8580,250.029316,250.133807
0.8590,250.027249,250.107525
0.8600,250.025296,250.105906
0.8610,250.023453,250.133270
0.8620,250.021718,250.153062
0.8630,250.020086,250.142345
0.8640,250.018553,250.110778
0.8650,250.017116,250.122046
0.8660,250.015770,250.143889
0.8670,250.014513,250.149428
0.8680,250.013338,250.124474
0.8690,250.012244,250.106848
0.8700,250.011225,250.134309
0.8710,250.010278,250.102655
0.8720,250.009399,250.089393
0.8730,250.008585,250.082548
0.8740,250.007831,250.073266
0.8750,250.007135,250.132261
0.8760,250.006492,250.111258
0.8770,250.005900,250.081824
0.8780,250.005356,250.120686
0.8790,250.004855,250.106712
0.8800,250.000000,250.105958
0.8810,250.000000,250.093066
0.8820,250.000000,250.100627
0.8830,250.000000,250.111286
0.8840,250.000000,250.084756
0.8850,250.000000,250.107763
0.8860,250.000000,250.114393
0.8870,250.000000,250.131739
0.8880,250.000000,250.099351
0.8890,250.000000,250.116364
0.8900,250.000000,250.068372
0.8910,250.000000,250.111883
0.8920,250.000000,250.076454
0.8930,250.000000,250.088416
0.8940,250.000000,250.090326
0.8950,250.000000,250.086642
0.8960,250.000000,250.082712
0.8970,250.000000,250.068004
0.8980,250.000000,250.076865
0.8990,250.000000,250.109655
0.9000,250.000000,250.090733
0.9010,250.000000,250.103129
0.9020,250.000000,250.086797
0.9030,250.000000,250.125637
0.9040,250.000000,250.095278
0.9050,250.000000,250.129633
0.9060,250.000000,250.099209
0.9070,250.000000,250.128133
0.9080,250.000000,250.109568
0.9090,250.000000,250.096612
0.9100,250.000000,250.124094
0.9110,250.000000,250.094149
0.9120,250.000000,250.085333
0.9130,250.000000,250.100895
0.9140,250.000000,250.062816
0.9150,250.000000,250.046370
0.9160,250.000000,250.102468
0.9170,250.000000,250.074864
0.9180,250.000000,250.103954
0.9190,250.000000,250.096174
0.9200,250.000000,250.083003
0.9210,250.000000,250.114553
0.9220,250.000000,250.103788
0.9230,250.000000,250.097356
0.9240,250.000000,250.100055
0.9250,250.000000,250.090650
0.9260,250.000000,250.121941
0.9270,250.000000,250.099627
0.9280,250.000000,250.109633
0.9290,250.000000,250.103002
0.9300,250.000000,250.086695
0.9310,250.000000,250.073065
0.9320,250.000000,250.129488
0.9330,250.000000,250.087249
0.9340,250.000000,250.113089
0.9350,250.000000,250.102463
0.9360,250.000000,250.080988
0.9370,250.000000,250.090826
0.9380,250.000000,250.093963
0.9390,250.000000,250.123840
0.9400,250.000000,250.113602
0.9410,250.000000,250.094022
0.9420,250.000000,250.115898
0.9430,250.000000,250.126260
0.9440,250.000000,250.098871
0.9450,250.000000,250.124727
0.9460,250.000000,250.136746
0.9470,250.000000,250.101460
0.9480,250.000000,250.100024
0.9490,250.000000,250.123792
0.9500,250.000000,250.096158
0.9510,250.000000,250.081827
0.9520,250.000000,250.105362
0.9530,250.000000,250.097271
0.9540,250.000000,250.087791
0.9550,250.000000,250.102491
0.9560,250.000000,250.104369
0.9570,250.000000,250.087495
0.9580,250.000000,250.121921
0.9590,250.000000,250.120546
0.9600,250.000000,250.072004
0.9610,250.000000,250.091290
0.9620,250.000000,250.077401
0.9630,250.000000,250.109927
0.9640,250.000000,250.098930
0.9650,250.000000,250.105695
0.9660,250.000000,250.133513
0.9670,250.000000,250.088587
0.9680,250.000000,250.113343
0.9690,250.000000,250.108819
0.9700,250.000000,250.100810
0.9710,250.000000,250.099090
0.9720,250.000000,250.059211
0.9730,250.000000,250.077038
0.9740,250.000000,250.110080
0.9750,250.000000,250.068225
0.9760,250.000000,250.111986
0.9770,250.000000,250.068183
0.9780,250.000000,250.069944
0.9790,250.000000,250.083059
0.9800,250.000000,250.119241
0.9810,250.000000,250.099082
0.9820,250.000000,250.116940
0.9830,250.000000,250.116427
0.9840,250.000000,250.116803
0.9850,250.000000,250.137538
0.9860,250.000000,250.129240
0.9870,250.000000,250.098275
0.9880,250.000000,250.107769
0.9890,250.000000,250.133617
0.9900,250.000000,250.107337
0.9910,250.000000,250.075005
0.9920,250.000000,250.071629
0.9930,250.000000,250.103020
0.9940,250.000000,250.097954
0.9950,250.000000,250.072836
0.9960,250.000000,250.098676
0.9970,250.000000,250.113746
0.9980,250.000000,250.115185
0.9990,250.000000,250.121862
1.0000,250.000000,250.111096
1.0010,250.000000,250.105064
1.0020,250.000000,250.106173
1.0030,250.000000,250.115509
1.0040,250.000000,250.104923
1.0050,250.000000,250.113477
1.0060,250.000000,250.137230
1.0070,250.000000,250.091714
1.0080,250.000000,250.089220
1.0090,250.000000,250.120347
1.0100,250.000000,250.097712
1.0110,250.000000,250.069154
1.0120,250.000000,250.092677
1.0130,250.000000,250.087015
1.0140,250.000000,250.081356
1.0150,250.000000,250.097343
1.0160,250.000000,250.067860
1.0170,250.000000,250.090344
1.0180,250.001465,250.092007
1.0190,250.001785,250.100537
1.0200,250.002164,250.079327
1.0210,250.002610,250.102878
1.0220,250.003133,250.116014
1.0230,250.003742,250.128000
1.0240,250.004446,250.150572
1.0250,250.005257,250.136575
1.0260,250.006184,250.131564
1.0270,250.007239,250.142517
1.0280,250.008432,250.116556
1.0290,250.009772,250.141318
1.0300,250.011269,250.131365
1.0310,250.012930,250.104620
1.0320,250.014762,250.137554
1.0330,250.016769,250.113881
1.0340,250.018954,250.139999
1.0350,250.021317,250.113247
1.0360,250.023856,250.103606
1.0370,250.026563,250.105516
1.0380,250.029430,250.118113
1.0390,250.032444,250.122368
1.0400,250.035589,250.158110
1.0410,250.038843,250.146817
1.0420,250.042183,250.130855
1.0430,250.045583,250.165212
1.0440,250.049010,250.169612
1.0450,250.052433,250.164919
1.0460,250.055814,250.178572
1.0470,250.059117,250.174940
1.0480,250.062304,250.184767
1.0490,250.065335,250.182467
1.0500,250.068172,250.177220
1.0510,250.070776,250.149935
1.0520,250.073114,250.199092
1.0530,250.075153,250.142477
1.0540,250.076863,250.163335
1.0550,250.078220,250.149433
1.0560,250.079204,250.173572
1.0570,250.079800,250.172582
1.0580,250.080000,250.171724
1.0590,250.079800,250.201293
1.0600,250.079204,250.199511
1.0610,250.078220,250.181947
1.0620,250.076863,250.202028
1.0630,250.075153,250.215275
1.0640,250.073114,250.208568
1.0650,250.070776,250.188458
1.0660,250.068172,250.163268
1.0670,250.065335,250.186891
1.0680,250.062304,250.185488
1.0690,250.059117,250.156276
1.0700,250.055814,250.159918
1.0710,250.052433,250.150018
1.0720,250.049010,250.164202
1.0730,250.045583,250.164234
1.0740,250.042183,250.148390
1.0750,250.038843,250.125362
1.0760,250.035589,250.141396
1.0770,250.032444,250.133047
1.0780,250.029430,250.122724
1.0790,250.026563,250.156832
1.0800,250.023856,250.116619
1.0810,250.021317,250.139159
1.0820,250.018954,250.144797
1.0830,250.016769,250.129250
1.0840,250.014762,250.142220
1.0850,250.012930,250.146972
1.0860,250.011269,250.134020
1.0870,250.009772,250.133673
1.0880,250.008432,250.123292
1.0890,250.007239,250.128024
1.0900,250.006184,250.106631
1.0910,250.005257,250.099521
1.0920,250.004446,250.099239
1.0930,250.003742,250.112445
1.0940,250.003133,250.065602
1.0950,250.002610,250.076869
1.0960,250.002164,250.124986
1.0970,250.001785,250.096873
1.0980,250.000000,250.088397
1.0990,250.000000,250.110888
1.1000,250.000000,250.092136
1.1010,250.000000,250.077316
1.1020,250.000000,250.118642
1.1030,250.000000,250.105899
1.1040,250.000000,250.120656
1.1050,250.000000,250.124861
1.1060,250.000000,250.121269
1.1070,250.000000,250.091231
1.1080,250.000000,250.113721
1.1090,250.000000,250.115536
1.1100,250.000000,250.082922
1.1110,250.000000,250.076191
1.1120,250.000000,250.078483
1.1130,250.000000,250.102180
1.1140,250.000000,250.058731
1.1150,250.000000,250.100368
1.1160,250.000000,250.094585
1.1170,250.000000,250.087113
1.1180,250.000000,250.072305
1.1190,249.983367,250.070393
1.1200,249.967461,250.083105
1.1210,249.952977,250.080686
1.1220,249.940548,250.038395
1.1230,249.930718,250.064700
1.1240,249.923915,250.053328
1.1250,249.920438,250.040241
1.1260,249.935091,250.043142
1.1270,249.951673,250.059796
1.1280,249.980459,250.121104
1.1290,250.024868,250.136382
1.1300,250.088188,250.212026
1.1310,250.172562,250.275127
1.1320,250.277671,250.365359
1.1330,250.399481,250.499178
1.1340,250.512944,250.633970
1.1350,250.623041,250.701249
1.1360,250.715871,250.818229
1.1370,250.778084,250.871858
1.1380,250.800000,250.872709
1.1390,250.778084,250.854913
1.1400,250.715871,250.812938
1.1410,250.623041,250.737038
1.1420,250.512944,250.639360
1.1430,250.399481,250.492692
1.1440,250.294304,250.423135
1.1450,250.205101,250.323143
1.1460,250.135211,250.254289
1.1470,250.084319,250.209898
1.1480,250.049741,250.189136
1.1490,250.027757,250.141048
1.1500,250.000000,250.083433
1.1510,250.000000,250.096027
1.1520,250.000000,250.107147
1.1530,250.000000,250.104094
1.1540,250.000000,250.098525
1.1550,250.000000,250.080096
1.1560,250.000000,250.068004
1.1570,250.000000,250.099629
1.1580,249.880000,249.956104
1.1590,249.896715,250.005879
1.1600,249.911102,250.025206
1.1610,249.923485,250.025109
1.1620,249.934143,250.045547
1.1630,249.943316,250.062917
1.1640,249.951212,250.060874
1.1650,249.958007,250.056940
1.1660,249.963857,250.082133
1.1670,249.968891,250.086449
1.1680,249.973224,250.106672
1.1690,249.976954,250.073786
1.1700,249.980164,250.099798
1.1710,249.982927,250.064373
1.1720,249.985305,250.059316
1.1730,249.987352,250.073469
1.1740,249.989114,250.063346
1.1750,249.990630,250.057802
1.1760,249.991935,250.109423
1.1770,249.993059,250.076867
1.1780,250.000000,250.128780
1.1790,250.000000,250.083638
1.1800,250.000000,250.077863
1.1810,250.000000,250.127792
1.1820,250.000000,250.101970
1.1830,250.000000,250.118480
1.1840,250.000000,250.098322
1.1850,250.000000,250.118855
1.1860,250.000000,250.098056
1.1870,250.000000,250.115235
1.1880,250.000000,250.105681
1.1890,250.000000,250.111770
1.1900,250.000000,250.112743
1.1910,250.000000,250.102015
1.1920,250.000000,250.100690
1.1930,250.000000,250.088734
1.1940,250.000000,250.081553
1.1950,250.000000,250.094336
1.1960,250.000000,250.086381
1.1970,250.000000,250.089210
1.1980,250.000000,250.099800
1.1990,250.000000,250.082780
1.2000,250.000000,250.124651
1.2010,250.000000,250.104395
1.2020,250.000000,250.114442
1.2030,250.000000,250.115435
1.2040,250.000000,250.128150
1.2050,250.000000,250.124212
1.2060,250.000000,250.117576
1.2070,250.000000,250.137766
1.2080,250.000000,250.064428
1.2090,250.000000,250.126640
1.2100,250.000000,250.116842
1.2110,250.000000,250.070539
1.2120,250.000000,250.107537
1.2130,250.000000,250.105917
1.2140,250.000000,250.096176
1.2150,250.000000,250.063562
1.2160,250.000000,250.097952
1.2170,250.000000,250.105074
1.2180,250.004396,250.089300
1.2190,250.004855,250.109400
1.2200,250.005356,250.102910
1.2210,250.005900,250.126959
1.2220,250.006492,250.114008
1.2230,250.007135,250.114172
1.2240,250.007831,250.125233
1.2250,250.008585,250.107214
1.2260,250.009399,250.125271
1.2270,250.010278,250.131367
1.2280,250.011225,250.136371
1.2290,250.012244,250.123594
1.2300,250.013338,250.094500
1.2310,250.014513,250.132482
1.2320,250.015770,250.130516
1.2330,250.017116,250.108447
1.2340,250.018553,250.094622
1.2350,250.020086,250.098654
1.2360,250.021718,250.105969
1.2370,250.023453,250.117188
1.2380,250.025296,250.113800
1.2390,250.027249,250.111882
1.2400,250.029316,250.147092
1.2410,250.031501,250.142712
1.2420,250.033806,250.129810
1.2430,250.036235,250.155910
1.2440,250.038789,250.158772
1.2450,250.041472,250.149016
1.2460,250.044285,250.179718
1.2470,250.047229,250.164464
1.2480,250.050307,250.158705
1.2490,250.053518,250.159429
1.2500,250.056863,250.165716
1.2510,250.060341,250.156484
1.2520,250.063952,250.155485
1.2530,250.067695,250.172861
1.2540,250.071567,250.137170
1.2550,250.075567,250.142864
1.2560,250.079690,250.178172
1.2570,250.083933,250.209245
1.2580,250.088291,250.194028
1.2590,250.092760,250.217746
1.2600,250.097333,250.192759
1.2610,250.102004,250.199308
1.2620,250.106766,250.224908
1.2630,250.111610,250.240722
1.2640,250.116529,250.213908
1.2650,250.121512,250.236123
1.2660,250.126550,250.243144
1.2670,250.131632,250.236149
1.2680,250.136748,250.239447
1.2690,250.141885,250.261175
1.2700,250.147030,250.255748
1.2710,250.152172,250.260849
1.2720,250.157298,250.254563
1.2730,250.162392,250.237937
1.2740,250.167442,250.260132
1.2750,250.172434,250.243684
1.2760,250.177352,250.258962
1.2770,250.182183,250.255170
1.2780,250.186912,250.269790
1.2790,250.191524,250.289353
1.2800,250.196005,250.290529
1.2810,250.200340,250.293394
1.2820,250.204515,250.332314
1.2830,250.208516,250.320964
1.2840,250.212329,250.320895
1.2850,250.215943,250.316945
1.2860,250.219343,250.307688
1.2870,250.222519,250.333310
1.2880,250.225459,250.315337
1.2890,250.228152,250.344893
1.2900,250.230589,250.332117
1.2910,250.232761,250.352247
1.2920,250.234660,250.329625
1.2930,250.236279,250.313426
1.2940,250.237612,250.295155
1.2950,250.238654,250.335680
1.2960,250.239401,250.305596
1.2970,250.239850,250.321648
1.2980,250.240000,250.356539
1.2990,250.239850,250.344870
1.3000,250.239401,250.346016
1.3010,250.238654,250.358498
1.3020,250.237612,250.361324
1.3030,250.236279,250.373607
1.3040,250.234660,250.341480
1.3050,250.232761,250.343714
1.3060,250.230589,250.332540
1.3070,250.228152,250.341142
1.3080,250.225459,250.333382
1.3090,250.222519,250.301607
1.3100,250.219343,250.309969
1.3110,250.215943,250.332985
1.3120,250.212329,250.306953
1.3130,250.208516,250.306633
1.3140,250.204515,250.287786
1.3150,250.200340,250.256295
1.3160,250.196005,250.279085
1.3170,250.191524,250.294397
1.3180,250.186912,250.259878
1.3190,250.182183,250.288565
1.3200,250.177352,250.251910
1.3210,250.172434,250.277730
1.3220,250.167442,250.285028
1.3230,250.162392,250.270632
1.3240,250.157298,250.309543
1.3250,250.152172,250.260679
1.3260,250.147030,250.253439
1.3270,250.141885,250.257728
1.3280,250.136748,250.234623
1.3290,250.131632,250.214715
1.3300,250.126550,250.209806
1.3310,250.121512,250.227621
1.3320,250.116529,250.202196
1.3330,250.111610,250.223805
1.3340,250.106766,250.184501
1.3350,250.102004,250.196195
1.3360,250.097333,250.189274
1.3370,250.092760,250.172430
1.3380,250.088291,250.165123
1.3390,250.083933,250.152391
1.3400,250.079690,250.187328
1.3410,250.075567,250.197787
1.3420,250.071567,250.156387
1.3430,250.067695,250.174307
1.3440,250.063952,250.168351
1.3450,250.060341,250.183758
1.3460,250.056863,250.166256
1.3470,250.053518,250.185373
1.3480,250.050307,250.152972
1.3490,250.047229,250.132615
1.3500,250.044285,250.136199
1.3510,250.041472,250.130055
1.3520,250.038789,250.136142
1.3530,250.036235,250.116513
1.3540,250.033806,250.123975
1.3550,250.031501,250.102388
1.3560,250.029316,250.108382
1.3570,250.027249,250.101191
1.3580,250.025296,250.101812
1.3590,250.023453,250.136211
1.3600,250.021718,250.109529
1.3610,250.020086,250.118312
1.3620,250.018553,250.142081
1.3630,250.017116,250.139722
1.3640,250.015770,250.153975
1.3650,250.014513,250.136082
1.3660,250.013338,250.117834
1.3670,250.012244,250.154288
1.3680,250.011225,250.127560
1.3690,250.010278,250.111059
1.3700,250.009399,250.108375
1.3710,250.008585,250.104400
1.3720,250.007831,250.092902
1.3730,250.007135,250.071537
1.3740,250.006492,250.113616
1.3750,250.005900,250.087469
1.3760,250.005356,250.090744
1.3770,250.004855,250.120891
1.3780,250.000000,250.078110
1.3790,250.000000,250.102608
1.3800,250.000000,250.085791
1.3810,250.000000,250.107390
1.3820,250.000000,250.110013
1.3830,250.000000,250.122345
1.3840,250.000000,250.130836
1.3850,250.000000,250.104758
1.3860,250.000000,250.133873
1.3870,250.000000,250.132617
1.3880,250.000000,250.102969
1.3890,250.000000,250.102115
1.3900,250.000000,250.089808
1.3910,250.000000,250.087651
1.3920,250.000000,250.069674
1.3930,250.000000,250.095803
1.3940,250.000000,250.051067
1.3950,250.000000,250.070535
1.3960,250.000000,250.081036
1.3970,250.000000,250.103451
1.3980,250.000000,250.079268
1.3990,250.000000,250.098278
1.4000,250.000000,250.095542
1.4010,250.000000,250.115830
1.4020,250.000000,250.111700
1.4030,250.000000,250.122012
1.4040,250.000000,250.103524
1.4050,250.000000,250.097308
1.4060,250.000000,250.117194
1.4070,250.000000,250.102051
1.4080,250.000000,250.106233
1.4090,250.000000,250.106029
1.4100,250.000000,250.114905
1.4110,250.000000,250.103082
1.4120,250.000000,250.076559
1.4130,250.000000,250.066010
1.4140,250.000000,250.106475
1.4150,250.000000,250.056292
1.4160,250.000000,250.073978
1.4170,250.000000,250.092667
1.4180,250.000000,250.111060
1.4190,250.000000,250.088044
1.4200,250.000000,250.096193
1.4210,250.000000,250.087552
1.4220,250.000000,250.106987
1.4230,250.000000,250.091325
1.4240,250.000000,250.099545
1.4250,250.000000,250.122990
1.4260,250.000000,250.104194
1.4270,250.000000,250.122133
1.4280,250.000000,250.102481
1.4290,250.000000,250.079739
1.4300,250.000000,250.112802
1.4310,250.000000,250.070551
1.4320,250.000000,250.076742
1.4330,250.000000,250.079182
1.4340,250.000000,250.094940
1.4350,250.000000,250.071121
1.4360,250.000000,250.065848
1.4370,250.000000,250.084410
1.4380,250.000000,250.082247
1.4390,250.000000,250.082854
1.4400,250.000000,250.098004
1.4410,250.000000,250.081594
1.4420,250.000000,250.078228
1.4430,250.000000,250.139623
1.4440,250.000000,250.111325
1.4450,250.000000,250.113104
1.4460,250.000000,250.097925
1.4470,250.000000,250.120795
1.4480,250.000000,250.095734
1.4490,250.000000,250.057430
1.4500,250.000000,250.085718
1.4510,250.000000,250.085004
1.4520,250.000000,250.082160
1.4530,250.000000,250.078132
1.4540,250.000000,250.069116
1.4550,250.000000,250.066830
1.4560,250.000000,250.074211
1.4570,250.000000,250.056217
1.4580,250.000000,250.055020
1.4590,250.000000,250.090260
1.4600,250.000000,250.095399
1.4610,250.000000,250.111758
1.4620,250.000000,250.099139
1.4630,250.000000,250.088552
1.4640,250.000000,250.079579
1.4650,250.000000,250.096048
1.4660,250.000000,250.114900
1.4670,250.000000,250.127855
1.4680,250.000000,250.103449
1.4690,250.000000,250.079917
1.4700,250.000000,250.079922
1.4710,250.000000,250.075389
1.4720,250.000000,250.077513
1.4730,250.000000,250.096820
1.4740,250.000000,250.095661
1.4750,250.000000,250.074253
1.4760,250.000000,250.080309
1.4770,250.000000,250.067815
1.4780,250.000000,250.057613
1.4790,250.000000,250.114489
1.4800,250.000000,250.057714
1.4810,250.000000,250.069900
1.4820,250.000000,250.128786
1.4830,250.000000,250.105571
1.4840,250.000000,250.090648
1.4850,250.000000,250.118502
1.4860,250.000000,250.119016
1.4870,250.000000,250.085099
1.4880,250.000000,250.093498
1.4890,250.000000,250.110116
1.4900,250.000000,250.079716
1.4910,250.000000,250.091198
1.4920,250.000000,250.103819
1.4930,250.000000,250.042961
1.4940,250.000000,250.071398
1.4950,250.000000,250.079598
1.4960,250.000000,250.049517
1.4970,250.000000,250.070667
1.4980,250.000000,250.097758
1.4990,250.000000,250.075927
1.5000,250.000000,250.069111
1.5010,250.000000,250.113223
1.5020,250.000000,250.107328
1.5030,250.000000,250.103107
1.5040,250.000000,250.104876
1.5050,250.000000,250.122499
1.5060,250.000000,250.110649
1.5070,250.000000,250.113582
1.5080,250.000000,250.089909
1.5090,250.000000,250.067016
1.5100,250.000000,250.100100
1.5110,250.000000,250.102280
1.5120,250.000000,250.077876
1.5130,250.000000,250.090959
1.5140,250.000000,250.070281
1.5150,250.000000,250.073104
1.5160,250.000000,250.101472
1.5170,250.000000,250.073024
1.5180,250.000000,250.075616
1.5190,250.000000,250.057223
1.5200,250.000000,250.100506
1.5210,250.001465,250.085855
1.5220,250.001785,250.103429
1.5230,250.002164,250.100351
1.5240,250.002610,250.101046
1.5250,250.003133,250.107210
1.5260,250.003742,250.108126
1.5270,250.004446,250.124749
1.5280,250.005257,250.127119
1.5290,250.006184,250.110481
1.5300,250.007239,250.115841
1.5310,250.008432,250.105765
1.5320,250.009772,250.097188
1.5330,250.011269,250.109490
1.5340,250.012930,250.067360
1.5350,250.014762,250.077705
1.5360,250.016769,250.078385
1.5370,250.018954,250.090572
1.5380,250.021317,250.111220
1.5390,250.023856,250.091140
1.5400,250.026563,250.122996
1.5410,250.029430,250.114395
1.5420,250.032444,250.125405
1.5430,250.035589,250.140236
1.5440,250.038843,250.167911
1.5450,250.042183,250.136066
1.5460,250.045583,250.148101
1.5470,250.049010,250.134219
1.5480,250.052433,250.139381
1.5490,250.055814,250.132756
1.5500,250.059117,250.151032
1.5510,250.062304,250.151917
1.5520,250.065335,250.154348
1.5530,250.068172,250.131969
1.5540,250.070776,250.151159
1.5550,250.073114,250.146726
1.5560,250.075153,250.146919
1.5570,250.076863,250.133081
1.5580,250.078220,250.158831
1.5590,250.079204,250.164685
1.5600,250.079800,250.168911
1.5610,250.080000,250.178463
1.5620,250.079800,250.187075
1.5630,250.079204,250.163063
1.5640,250.078220,250.177505
1.5650,250.076863,250.187851
1.5660,250.075153,250.173529
1.5670,250.073114,250.187568
1.5680,250.070776,250.168585
1.5690,250.068172,250.130776
1.5700,250.065335,250.164843
1.5710,250.062304,250.142452
1.5720,250.059117,250.109949
1.5730,250.055814,250.125800
1.5740,250.052433,250.104837
1.5750,250.049010,250.130886
1.5760,250.045583,250.116339
1.5770,250.042183,250.101826
1.5780,250.038843,250.127976
1.5790,250.035589,250.123829
1.5800,250.032444,250.115147
1.5810,250.029430,250.101861
1.5820,250.026563,250.109433
1.5830,250.023856,250.109972
1.5840,250.021317,250.133697
1.5850,250.018954,250.095637
1.5860,250.016769,250.117105
1.5870,250.014762,250.109710
1.5880,250.012930,250.123557
1.5890,250.011269,250.105325
1.5900,250.009772,250.103352
1.5910,250.008432,250.081090
1.5920,250.007239,250.064783
1.5930,250.006184,250.073702
1.5940,250.005257,250.086972
1.5950,250.004446,250.085274
1.5960,250.003742,250.067201
1.5970,250.003133,250.062343
1.5980,250.002610,250.062351
1.5990,250.002164,250.080096
1.6000,250.001785,250.088689
1.6010,250.000000,250.111827
1.6020,250.000000,250.095970
1.6030,250.000000,250.106796
1.6040,250.000000,250.088084
1.6050,250.000000,250.101130
1.6060,250.000000,250.101752
1.6070,250.000000,250.095199
1.6080,250.000000,250.093369
1.6090,250.000000,250.091059
1.6100,250.000000,250.091366
1.6110,250.000000,250.096672
1.6120,250.000000,250.040621
1.6130,250.000000,250.087699
1.6140,250.000000,250.042987
1.6150,250.000000,250.072426
1.6160,250.000000,250.103841
1.6170,250.000000,250.070069
1.6180,250.000000,250.076876
1.6190,250.000000,250.073910
1.6200,250.000000,250.093446
1.6210,250.000000,250.093742
1.6220,249.983367,250.065924
1.6230,249.967461,250.061911
1.6240,249.952977,250.034566
1.6250,249.940548,250.037841
1.6260,249.930718,250.022649
1.6270,249.923915,250.021840
1.6280,249.920438,250.002054
1.6290,249.935091,250.019606
1.6300,249.951673,250.034519
1.6310,249.980459,250.059333
1.6320,250.024868,250.102147
1.6330,250.088188,250.155127
1.6340,250.172562,250.227968
1.6350,250.277671,250.345252
1.6360,250.399481,250.463859
1.6370,250.512944,250.597574
1.6380,250.623041,250.713028
1.6390,250.715871,250.772404
1.6400,250.778084,250.869325
1.6410,250.800000,250.899121
1.6420,250.778084,250.849138
1.6430,250.715871,250.819272
1.6440,250.623041,250.733387
1.6450,250.512944,250.596316
1.6460,250.399481,250.492696
1.6470,250.294304,250.391511
1.6480,250.205101,250.304457
1.6490,250.135211,250.206649
1.6500,250.084319,250.182921
1.6510,250.049741,250.095529
1.6520,250.027757,250.119307
1.6530,250.000000,250.076333
1.6540,250.000000,250.056406
1.6550,250.000000,250.077841
1.6560,250.000000,250.049866
1.6570,250.000000,250.069505
1.6580,250.000000,250.074824
1.6590,250.000000,250.079174
1.6600,250.000000,250.067905
1.6610,249.880000,249.957929
1.6620,249.896715,249.988372
1.6630,249.911102,249.993421
1.6640,249.923485,250.022974
1.6650,249.934143,250.021056
1.6660,249.943316,250.053583
1.6670,249.951212,250.067571
1.6680,249.958007,250.042849
1.6690,249.963857,250.062429
1.6700,249.968891,250.045455
1.6710,249.973224,250.033906
1.6720,249.976954,250.040761
1.6730,249.980164,250.048024
1.6740,249.982927,250.020351
1.6750,249.985305,250.058059
1.6760,249.987352,250.052719
1.6770,249.989114,250.070395
1.6780,249.990630,250.069489
1.6790,249.991935,250.067855
1.6800,249.993059,250.066710
1.6810,250.000000,250.106699
1.6820,250.000000,250.120788
1.6830,250.000000,250.086616
1.6840,250.000000,250.109534
1.6850,250.000000,250.084005
1.6860,250.000000,250.084931
1.6870,250.000000,250.085603
1.6880,250.000000,250.098051
1.6890,250.000000,250.067119
1.6900,250.000000,250.101471
1.6910,250.000000,250.087269
1.6920,250.000000,250.078586
1.6930,250.000000,250.060639
1.6940,250.000000,250.075139
1.6950,250.000000,250.018076
1.6960,250.000000,250.069155
1.6970,250.000000,250.067139
1.6980,250.000000,250.039906
1.6990,250.000000,250.078676
1.7000,250.000000,250.086312
1.7010,250.000000,250.054510
1.7020,250.000000,250.068897
1.7030,250.000000,250.121126
1.7040,250.000000,250.089560
1.7050,250.000000,250.107694
1.7060,250.000000,250.109101
1.7070,250.000000,250.095757
1.7080,250.000000,250.101489
1.7090,250.000000,250.049999
1.7100,250.000000,250.073212
1.7110,250.000000,250.025438
1.7120,250.000000,250.040917
1.7130,250.000000,250.055300
1.7140,250.000000,250.051159
1.7150,250.000000,250.060899
1.7160,250.000000,250.060673
1.7170,250.000000,250.065183
1.7180,250.000000,250.069258
1.7190,250.000000,250.076013
1.7200,250.000000,250.061499
1.7210,250.004396,250.074274
1.7220,250.004855,250.089433
1.7230,250.005356,250.093628
1.7240,250.005900,250.080457
1.7250,250.006492,250.114206
1.7260,250.007135,250.108635
1.7270,250.007831,250.083211
1.7280,250.008585,250.090116
1.7290,250.009399,250.119660
1.7300,250.010278,250.087780
1.7310,250.011225,250.087230
1.7320,250.012244,250.068640
1.7330,250.013338,250.070553
1.7340,250.014513,250.096741
1.7350,250.015770,250.076166
1.7360,250.017116,250.075452
1.7370,250.018553,250.080260
1.7380,250.020086,250.123319
1.7390,250.021718,250.091748
1.7400,250.023453,250.085300
1.7410,250.025296,250.094627
1.7420,250.027249,250.122502
1.7430,250.029316,250.094891
1.7440,250.031501,250.127454
1.7450,250.033806,250.112846
1.7460,250.036235,250.097387
1.7470,250.038789,250.110769
1.7480,250.041472,250.124946
1.7490,250.044285,250.143733
1.7500,250.047229,250.134425
1.7510,250.050307,250.114373
1.7520,250.053518,250.132031
1.7530,250.056863,250.111821
1.7540,250.060341,250.096301
1.7550,250.063952,250.121362
1.7560,250.067695,250.102902
1.7570,250.071567,250.143426
1.7580,250.075567,250.151102
1.7590,250.079690,250.134316
1.7600,250.083933,250.158806
1.7610,250.088291,250.167885
1.7620,250.092760,250.187772
1.7630,250.097333,250.164048
1.7640,250.102004,250.198579
1.7650,250.106766,250.175299
1.7660,250.111610,250.210689
1.7670,250.116529,250.217536
1.7680,250.121512,250.192914
1.7690,250.126550,250.221742
1.7700,250.131632,250.179901
1.7710,250.136748,250.220095
1.7720,250.141885,250.225773
1.7730,250.147030,250.210908
1.7740,250.152172,250.205576
1.7750,250.157298,250.217456
1.7760,250.162392,250.209509
1.7770,250.167442,250.265176
1.7780,250.172434,250.225459
1.7790,250.177352,250.263315
1.7800,250.182183,250.242129
1.7810,250.186912,250.286791
1.7820,250.191524,250.302014
1.7830,250.196005,250.285557
1.7840,250.200340,250.290593
1.7850,250.204515,250.276820
1.7860,250.208516,250.278170
1.7870,250.212329,250.300233
1.7880,250.215943,250.317629
1.7890,250.219343,250.286391
1.7900,250.222519,250.325883
1.7910,250.225459,250.281525
1.7920,250.228152,250.292269
1.7930,250.230589,250.291123
1.7940,250.232761,250.285937
1.7950,250.234660,250.257836
1.7960,250.236279,250.281527
1.7970,250.237612,250.297331
1.7980,250.238654,250.297396
1.7990,250.239401,250.313504
1.8000,250.239850,250.320624
1.8010,250.240000,250.310682
1.8020,250.239850,250.304075
1.8030,250.239401,250.344744
1.8040,250.238654,250.302630
1.8050,250.237612,250.313691
1.8060,250.236279,250.307673
1.8070,250.234660,250.327645
1.8080,250.232761,250.330682
1.8090,250.230589,250.301606
1.8100,250.228152,250.300194
1.8110,250.225459,250.295459
1.8120,250.222519,250.308604
1.8130,250.219343,250.248142
1.8140,250.215943,250.280153
1.8150,250.212329,250.270158
1.8160,250.208516,250.255834
1.8170,250.204515,250.264478
1.8180,250.200340,250.269979
1.8190,250.196005,250.267656
1.8200,250.191524,250.291667
1.8210,250.186912,250.261451
1.8220,250.182183,250.259591
1.8230,250.177352,250.255093
1.8240,250.172434,250.263378
1.8250,250.167442,250.250311
1.8260,250.162392,250.245073
1.8270,250.157298,250.237692
1.8280,250.152172,250.226657
1.8290,250.147030,250.209860
1.8300,250.141885,250.215089
1.8310,250.136748,250.194377
1.8320,250.131632,250.198199
1.8330,250.126550,250.181950
1.8340,250.121512,250.167095
1.8350,250.116529,250.190516
1.8360,250.111610,250.161290
1.8370,250.106766,250.169512
1.8380,250.102004,250.148364
1.8390,250.097333,250.128187
1.8400,250.092760,250.150352
1.8410,250.088291,250.127187
1.8420,250.083933,250.155714
1.8430,250.079690,250.180510
1.8440,250.075567,250.142966
1.8450,250.071567,250.121655
1.8460,250.067695,250.171011
1.8470,250.063952,250.135277
1.8480,250.060341,250.134937
1.8490,250.056863,250.138974
1.8500,250.053518,250.126625
1.8510,250.050307,250.121795
1.8520,250.047229,250.116423
1.8530,250.044285,250.070156
1.8540,250.041472,250.069963
1.8550,250.038789,250.105196
1.8560,250.036235,250.074047
1.8570,250.033806,250.075443
1.8580,250.031501,250.067741
1.8590,250.029316,250.082801
1.8600,250.027249,250.086428
1.8610,250.025296,250.080513
1.8620,250.023453,250.081313
1.8630,250.021718,250.103609
1.8640,250.020086,250.087270
1.8650,250.018553,250.089457
1.8660,250.017116,250.063453
1.8670,250.015770,250.121618
1.8680,250.014513,250.101790
1.8690,250.013338,250.074522
1.8700,250.012244,250.062335
1.8710,250.011225,250.069937
1.8720,250.010278,250.064034
1.8730,250.009399,250.040640
1.8740,250.008585,250.018350
1.8750,250.007831,250.047096
1.8760,250.007135,250.031539
1.8770,250.006492,250.059106
1.8780,250.005900,250.062069
1.8790,250.005356,250.048631
1.8800,250.004855,250.059570
1.8810,250.000000,250.094039
1.8820,250.000000,250.083596
1.8830,250.000000,250.068641
1.8840,250.000000,250.111992
1.8850,250.000000,250.060357
1.8860,250.000000,250.065253
1.8870,250.000000,250.073429
1.8880,250.000000,250.048497
1.8890,250.000000,250.093772
1.8900,250.000000,250.064636
1.8910,250.000000,250.045010
1.8920,250.000000,250.059031
1.8930,250.000000,250.050881
1.8940,250.000000,250.041763
1.8950,250.000000,250.027338
1.8960,250.000000,250.024621
1.8970,250.000000,250.081154
1.8980,250.000000,250.031516
1.8990,250.000000,250.081652
1.9000,250.000000,250.048371
1.9010,250.000000,250.077752
1.9020,250.000000,250.077259
1.9030,250.000000,250.083714
1.9040,250.000000,250.086901
1.9050,250.000000,250.052445
1.9060,250.000000,250.065606
1.9070,250.000000,250.052873
1.9080,250.000000,250.072609
1.9090,250.000000,250.045374
1.9100,250.000000,250.030479
1.9110,250.000000,250.051604
1.9120,250.000000,250.017485
1.9130,250.000000,250.050878
1.9140,250.000000,250.025775
1.9150,250.000000,250.031163
1.9160,250.000000,250.010263
1.9170,250.000000,250.071409
1.9180,250.000000,250.028169
1.9190,250.000000,250.049028
1.9200,250.000000,250.032471
1.9210,250.000000,250.051672
1.9220,250.000000,250.094860
1.9230,250.000000,250.076499
1.9240,250.000000,250.063371
1.9250,250.000000,250.074411
1.9260,250.000000,250.065647
1.9270,250.000000,250.070312
1.9280,250.000000,250.079231
1.9290,250.000000,250.058562
1.9300,250.000000,250.061799
1.9310,250.000000,250.057018
1.9320,250.000000,250.044033
1.9330,250.000000,250.034262
1.9340,250.000000,250.035065
1.9350,250.000000,250.052563
1.9360,250.000000,250.054510
1.9370,250.000000,250.027894
1.9380,250.000000,250.044501
1.9390,250.000000,250.041498
1.9400,250.000000,250.069650
1.9410,250.000000,250.055442
1.9420,250.000000,250.099900
1.9430,250.000000,250.073609
1.9440,250.000000,250.090259
1.9450,250.000000,250.058008
1.9460,250.000000,250.072535
1.9470,250.000000,250.079244
1.9480,250.000000,250.050878
1.9490,250.000000,250.062137
1.9500,250.000000,250.072581
1.9510,250.000000,250.046862
1.9520,250.000000,250.034453
1.9530,250.000000,250.070649
1.9540,250.000000,250.023671
1.9550,250.000000,250.042717
1.9560,250.000000,250.030453
1.9570,250.000000,250.029213
1.9580,250.000000,250.057845
1.9590,250.000000,250.048013
1.9600,250.000000,250.062044
1.9610,250.000000,250.026988
1.9620,250.000000,250.072737
1.9630,250.000000,250.057836
1.9640,250.000000,250.042650
1.9650,250.000000,250.099803
1.9660,250.000000,250.079679
1.9670,250.000000,250.071716
1.9680,250.000000,250.083423
1.9690,250.000000,250.063851
1.9700,250.000000,250.043129
1.9710,250.000000,250.047455
1.9720,250.000000,250.035359
1.9730,250.000000,250.034405
1.9740,250.000000,250.020687
1.9750,250.000000,250.024135
1.9760,250.000000,250.052802
1.9770,250.000000,250.046553
1.9780,250.000000,250.037481
1.9790,250.000000,250.033982
1.9800,250.000000,250.048181
1.9810,250.000000,250.033864
1.9820,250.000000,250.065397
1.9830,250.000000,250.081135
1.9840,250.000000,250.104645
1.9850,250.000000,250.053290
1.9860,250.000000,250.082529
1.9870,250.000000,250.056006
1.9880,250.000000,250.046063
1.9890,250.000000,250.041512
1.9900,250.000000,250.055528
1.9910,250.000000,250.034426
1.9920,250.000000,250.034741
1.9930,250.000000,250.033613
1.9940,250.000000,250.026763
1.9950,250.000000,250.024806
1.9960,250.000000,250.001256
1.9970,250.000000,250.041186
1.9980,250.000000,250.044352
1.9990,250.000000,250.035753
2.0000,250.000000,250.057979
2.0010,250.000000,250.078387
2.0020,250.000000,250.062163
2.0030,250.000000,250.085218
2.0040,250.000000,250.101025
2.0050,250.000000,250.106110
2.0060,250.000000,250.049461
2.0070,250.000000,250.047182
2.0080,250.000000,250.054637
2.0090,250.000000,250.058690
2.0100,250.000000,250.075531
2.0110,250.000000,250.056111
2.0120,250.000000,250.024109
2.0130,250.000000,250.029360
2.0140,250.000000,250.035548
2.0150,250.000000,250.012973
2.0160,250.000000,250.036215
2.0170,250.000000,250.020372
2.0180,250.000000,250.016893
2.0190,250.000000,250.031826
2.0200,250.000000,250.057056
2.0210,250.000000,250.061813
2.0220,250.000000,250.061577
2.0230,250.000000,250.078457
2.0240,250.000000,250.079056
2.0250,250.000000,250.069537
2.0260,250.000000,250.066600
2.0270,250.000000,250.065191
2.0280,250.000000,250.057410
2.0290,250.000000,250.022465
2.0300,250.000000,250.067085
2.0310,250.000000,250.050987
2.0320,250.000000,250.022236
2.0330,250.001465,250.059740
2.0340,250.001785,250.027436
2.0350,250.002164,250.034182
2.0360,250.002610,250.052298
2.0370,250.003133,250.042958
2.0380,250.003742,250.063751
2.0390,250.004446,250.043520
2.0400,250.005257,250.079841
2.0410,250.006184,250.048595
2.0420,250.007239,250.085458
2.0430,250.008432,250.036366
2.0440,250.009772,250.057369
2.0450,250.011269,250.080538
2.0460,250.012930,250.070856
2.0470,250.014762,250.075217
2.0480,250.016769,250.075348
2.0490,250.018954,250.054501
2.0500,250.021317,250.052962
2.0510,250.023856,250.070693
2.0520,250.026563,250.055380
2.0530,250.029430,250.084735
2.0540,250.032444,250.062399
2.0550,250.035589,250.078337
2.0560,250.038843,250.078153
2.0570,250.042183,250.068023
2.0580,250.045583,250.054191
2.0590,250.049010,250.109475
2.0600,250.052433,250.085301
2.0610,250.055814,250.102171
2.0620,250.059117,250.113646
2.0630,250.062304,250.121787
2.0640,250.065335,250.142202
2.0650,250.068172,250.131397
2.0660,250.070776,250.131138
2.0670,250.073114,250.148308
2.0680,250.075153,250.140457
2.0690,250.076863,250.117581
2.0700,250.078220,250.107737
2.0710,250.079204,250.108546
2.0720,250.079800,250.116217
2.0730,250.080000,250.094842
2.0740,250.079800,250.112339
2.0750,250.079204,250.107578
2.0760,250.078220,250.071095
2.0770,250.076863,250.088973
2.0780,250.075153,250.068527
2.0790,250.073114,250.108994
2.0800,250.070776,250.132787
2.0810,250.068172,250.090574
2.0820,250.065335,250.100641
2.0830,250.062304,250.118446
2.0840,250.059117,250.103949
2.0850,250.055814,250.101273
2.0860,250.052433,250.121180
2.0870,250.049010,250.099856
2.0880,250.045583,250.077929
2.0890,250.042183,250.060973
2.0900,250.038843,250.117048
2.0910,250.035589,250.092566
2.0920,250.032444,250.061181
2.0930,250.029430,250.062637
2.0940,250.026563,250.048770
2.0950,250.023856,250.060183
2.0960,250.021317,250.037876
2.0970,250.018954,250.042369
2.0980,250.016769,250.058620
2.0990,250.014762,250.075968
2.1000,250.012930,250.068313
2.1010,250.011269,250.078902
2.1020,250.009772,250.058589
2.1030,250.008432,250.056048
2.1040,250.007239,250.037316
2.1050,250.006184,250.067122
2.1060,250.005257,250.069932
2.1070,250.004446,250.056582
2.1080,250.003742,250.045106
2.1090,250.003133,250.070258
2.1100,250.002610,250.055536
2.1110,250.002164,250.060279
2.1120,250.001785,250.021363
2.1130,250.000000,250.019637
2.1140,250.000000,250.045954
2.1150,250.000000,250.026332
2.1160,250.000000,250.019208
2.1170,250.000000,250.022444
2.1180,250.000000,250.033229
2.1190,250.000000,250.052819
2.1200,250.000000,250.040231
2.1210,250.000000,250.059360
2.1220,250.000000,250.058892
2.1230,250.000000,250.042166
2.1240,250.000000,250.044346
2.1250,250.000000,250.051481
2.1260,250.000000,250.037319
2.1270,250.000000,250.047306
2.1280,250.000000,250.074100
2.1290,250.000000,250.046387
2.1300,250.000000,250.030336
2.1310,250.000000,250.065545
2.1320,250.000000,250.018309
2.1330,250.000000,250.014220
2.1340,249.983367,250.028105
2.1350,249.967461,250.002813
2.1360,249.952977,249.977161
2.1370,249.940548,249.981355
2.1380,249.930718,249.967014
2.1390,249.923915,249.942290
2.1400,249.920438,249.925507
2.1410,249.935091,249.972477
2.1420,249.951673,250.018224
2.1430,249.980459,250.027769
2.1440,250.024868,250.087699
2.1450,250.088188,250.147589
2.1460,250.172562,250.202930
2.1470,250.277671,250.324993
2.1480,250.399481,250.454664
2.1490,250.512944,250.546397
2.1500,250.623041,250.657839
2.1510,250.715871,250.756960
2.1520,250.778084,250.809846
2.1530,250.800000,250.842757
2.1540,250.778084,250.808541
2.1550,250.715871,250.725373
2.1560,250.623041,250.640421
2.1570,250.512944,250.539986
2.1580,250.399481,250.449756
2.1590,250.294304,250.321780
2.1600,250.205101,250.218557
2.1610,250.135211,250.186129
2.1620,250.084319,250.121677
2.1630,250.049741,250.082614
2.1640,250.027757,250.082386
2.1650,250.000000,250.069644
2.1660,250.000000,250.045581
2.1670,250.000000,250.059287
2.1680,250.000000,250.058448
2.1690,250.000000,250.055558
2.1700,250.000000,250.027674
2.1710,250.000000,250.016819
2.1720,250.000000,250.014326
2.1730,249.880000,249.917344
2.1740,249.896715,249.929854
2.1750,249.911102,249.919012
2.1760,249.923485,249.978446
2.1770,249.934143,249.943164
2.1780,249.943316,249.986936
2.1790,249.951212,250.007017
2.1800,249.958007,249.997531
2.1810,249.963857,249.995054
2.1820,249.968891,250.004799
2.1830,249.973224,250.019881
2.1840,249.976954,250.045950
2.1850,249.980164,250.015655
2.1860,249.982927,250.007974
2.1870,249.985305,250.041014
2.1880,249.987352,250.042737
2.1890,249.989114,250.060756
2.1900,249.990630,250.006997
2.1910,249.991935,250.021993
2.1920,249.993059,250.038029
2.1930,250.000000,250.025739
2.1940,250.000000,250.018644
2.1950,250.000000,250.032564
2.1960,250.000000,250.012431
2.1970,250.000000,250.036389
2.1980,250.000000,250.008277
2.1990,250.000000,250.008672
2.2000,250.000000,250.032228
2.2010,250.000000,250.002750
2.2020,250.000000,250.046853
2.2030,250.000000,250.023057
2.2040,250.000000,250.055478
2.2050,250.000000,250.054730
2.2060,250.000000,250.050070
2.2070,250.000000,250.055286
2.2080,250.000000,250.048187
2.2090,250.000000,250.036193
2.2100,250.000000,250.063032
2.2110,250.000000,250.036446
2.2120,250.000000,250.037589
2.2130,250.000000,250.038491
2.2140,250.000000,250.030068
2.2150,250.000000,250.050130
2.2160,250.000000,250.022385
2.2170,250.000000,250.021987
2.2180,250.000000,250.015812
2.2190,250.000000,250.026096
2.2200,250.000000,250.023840
2.2210,250.000000,250.049836
2.2220,250.000000,250.030378
2.2230,250.000000,250.048634
2.2240,250.000000,250.058117
2.2250,250.000000,250.052687
2.2260,250.000000,250.036135
2.2270,250.000000,250.057710
2.2280,250.000000,250.042331
2.2290,250.000000,249.995985
2.2300,250.000000,250.019306
2.2310,250.000000,250.050054
2.2320,250.000000,250.046767
2.2330,250.004396,250.033175
2.2340,250.004855,250.035156
2.2350,250.005356,250.011364
2.2360,250.005900,250.020389
2.2370,250.006492,250.045612
2.2380,250.007135,250.037578
2.2390,250.007831,250.037246
2.2400,250.008585,250.039093
2.2410,250.009399,250.065197
2.2420,250.010278,250.069675
2.2430,250.011225,250.067002
2.2440,250.012244,250.061469
2.2450,250.013338,250.056927
2.2460,250.014513,250.072991
2.2470,250.015770,250.044978
2.2480,250.017116,250.045820
2.2490,250.018553,250.034376
2.2500,250.020086,250.071185
2.2510,250.021718,250.038461
2.2520,250.023453,250.052533
2.2530,250.025296,250.042819
2.2540,250.027249,250.087772
2.2550,250.029316,250.052148
2.2560,250.031501,250.020482
2.2570,250.033806,250.070550
2.2580,250.036235,250.053007
2.2590,250.038789,250.062742
2.2600,250.041472,250.063222
2.2610,250.044285,250.083928
2.2620,250.047229,250.091064
2.2630,250.050307,250.085188
2.2640,250.053518,250.092659
2.2650,250.056863,250.105856
2.2660,250.060341,250.071819
2.2670,250.063952,250.086603
2.2680,250.067695,250.133406
2.2690,250.071567,250.112613
2.2700,250.075567,250.098805
2.2710,250.079690,250.080344
2.2720,250.083933,250.104651
2.2730,250.088291,250.121020
2.2740,250.092760,250.147954
2.2750,250.097333,250.140465
2.2760,250.102004,250.104163
2.2770,250.106766,250.116992
2.2780,250.111610,250.110669
2.2790,250.116529,250.129424
2.2800,250.121512,250.148712
2.2810,250.126550,250.156308
2.2820,250.131632,250.202105
2.2830,250.136748,250.160140
2.2840,250.141885,250.186532
2.2850,250.147030,250.162114
2.2860,250.152172,250.202317
2.2870,250.157298,250.180009
2.2880,250.162392,250.218158
2.2890,250.167442,250.197772
2.2900,250.172434,250.181085
2.2910,250.177352,250.170477
2.2920,250.182183,250.187638
2.2930,250.186912,250.207027
2.2940,250.191524,250.212027
2.2950,250.196005,250.201855
2.2960,250.200340,250.228266
2.2970,250.204515,250.203720
2.2980,250.208516,250.184321
2.2990,250.212329,250.240669
2.3000,250.215943,250.264270
2.3010,250.219343,250.272683
2.3020,250.222519,250.241262
2.3030,250.225459,250.258998
2.3040,250.228152,250.282922
2.3050,250.230589,250.265809
2.3060,250.232761,250.278115
2.3070,250.234660,250.265344
2.3080,250.236279,250.257760
2.3090,250.237612,250.257458
2.3100,250.238654,250.281267
2.3110,250.239401,250.262872
2.3120,250.239850,250.277663
2.3130,250.240000,250.262932
2.3140,250.239850,250.276731
2.3150,250.239401,250.263603
2.3160,250.238654,250.262690
2.3170,250.237612,250.250654
2.3180,250.236279,250.299738
2.3190,250.234660,250.259063
2.3200,250.232761,250.230748
2.3210,250.230589,250.267073
2.3220,250.228152,250.250273
2.3230,250.225459,250.281041
2.3240,250.222519,250.275937
2.3250,250.219343,250.259716
2.3260,250.215943,250.245018
2.3270,250.212329,250.254579
2.3280,250.208516,250.235342
2.3290,250.204515,250.248249
2.3300,250.200340,250.235585
2.3310,250.196005,250.261937
2.3320,250.191524,250.202212
2.3330,250.186912,250.196118
2.3340,250.182183,250.191279
2.3350,250.177352,250.186254
2.3360,250.172434,250.199122
2.3370,250.167442,250.176785
2.3380,250.162392,250.208938
2.3390,250.157298,250.187385
2.3400,250.152172,250.171116
2.3410,250.147030,250.167019
2.3420,250.141885,250.192998
2.3430,250.136748,250.176149
2.3440,250.131632,250.172948
2.3450,250.126550,250.159469
2.3460,250.121512,250.161636
2.3470,250.116529,250.145651
2.3480,250.111610,250.167136
2.3490,250.106766,250.148095
2.3500,250.102004,250.124946
2.3510,250.097333,250.115044
2.3520,250.092760,250.110168
2.3530,250.088291,250.100628
2.3540,250.083933,250.079660
2.3550,250.079690,250.060410
2.3560,250.075567,250.073551
2.3570,250.071567,250.081796
2.3580,250.067695,250.072258
2.3590,250.063952,250.096268
2.3600,250.060341,250.081808
2.3610,250.056863,250.114749
2.3620,250.053518,250.079273
2.3630,250.050307,250.090070
2.3640,250.047229,250.082756
2.3650,250.044285,250.091459
2.3660,250.041472,250.097187
2.3670,250.038789,250.085305
2.3680,250.036235,250.039560
2.3690,250.033806,250.070566
2.3700,250.031501,250.040591
2.3710,250.029316,250.043914
2.3720,250.027249,250.052308
2.3730,250.025296,250.019614
2.3740,250.023453,250.049571
2.3750,250.021718,250.024348
2.3760,250.020086,250.061299
2.3770,250.018553,250.030441
2.3780,250.017116,250.057030
2.3790,250.015770,250.052465
2.3800,250.014513,250.028956
2.3810,250.013338,250.022304
2.3820,250.012244,250.046835
2.3830,250.011225,250.038849
2.3840,250.010278,250.072546
2.3850,250.009399,250.044988
2.3860,250.008585,250.042524
2.3870,250.007831,250.023002
2.3880,250.007135,250.045930
2.3890,250.006492,250.016862
2.3900,250.005900,250.035513
2.3910,250.005356,250.032025
2.3920,250.004855,250.007055
2.3930,250.000000,250.024191
2.3940,250.000000,250.003384
2.3950,250.000000,249.984593
2.3960,250.000000,250.030561
2.3970,250.000000,249.995740
2.3980,250.000000,250.020676
2.3990,250.000000,250.023854
2.4000,250.000000,250.028187
2.4010,250.000000,250.032810
2.4020,250.000000,250.017077
2.4030,250.000000,250.060478
2.4040,250.000000,250.051662
2.4050,250.000000,250.045166
2.4060,250.000000,250.017200
2.4070,250.000000,250.020185
2.4080,250.000000,250.041121
2.4090,250.000000,249.996682
2.4100,250.000000,250.026812
2.4110,250.000000,249.996759
2.4120,250.000000,249.999184
2.4130,250.000000,249.987438
2.4140,250.000000,250.009962
2.4150,250.000000,250.022172
2.4160,250.000000,250.011369
2.4170,250.000000,250.015228
2.4180,250.000000,250.014359
2.4190,250.000000,250.026480
2.4200,250.000000,250.028129
2.4210,250.000000,249.985280
2.4220,250.000000,250.044001
2.4230,250.000000,250.045903
2.4240,250.000000,250.030664
2.4250,250.000000,250.007208
2.4260,250.000000,250.039616
2.4270,250.000000,250.038546
2.4280,250.000000,250.023439
2.4290,250.000000,250.028327
2.4300,250.000000,250.036600
2.4310,250.000000,250.051481
2.4320,250.000000,250.013202
2.4330,250.000000,250.012409
2.4340,250.000000,249.992711
2.4350,250.000000,249.996705
2.4360,250.000000,250.002909
2.4370,250.000000,250.024829
2.4380,250.000000,250.022928
2.4390,250.000000,250.043986
2.4400,250.000000,249.997577
2.4410,250.000000,250.004960
2.4420,250.000000,250.045749
2.4430,250.000000,250.054432
2.4440,250.000000,250.035410
2.4450,250.000000,249.968654
2.4460,250.000000,250.023644
2.4470,250.000000,250.037499
2.4480,250.000000,250.015377
2.4490,250.000000,250.027127
2.4500,250.000000,250.047826
2.4510,250.000000,250.035738
2.4520,250.000000,250.021961
2.4530,250.000000,250.005264
2.4540,250.000000,249.996480
2.4550,250.000000,250.014426
2.4560,250.000000,250.004167
2.4570,250.000000,250.006897
2.4580,250.000000,249.986215
2.4590,250.000000,250.003169
2.4600,250.000000,250.030052
2.4610,250.000000,250.007145
2.4620,250.000000,250.032051
2.4630,250.000000,250.037735
2.4640,250.000000,250.040827
2.4650,250.000000,250.042894
2.4660,250.000000,250.043067
2.4670,250.000000,250.021965
2.4680,250.000000,250.005711
2.4690,250.000000,250.010106
2.4700,250.000000,250.029158
2.4710,250.000000,249.995196
2.4720,250.000000,249.993083
2.4730,250.000000,249.989405
2.4740,250.000000,249.975079
2.4750,250.000000,249.984725
2.4760,250.000000,250.017663
2.4770,250.000000,249.994123
2.4780,250.000000,249.982125
2.4790,250.000000,250.005089
2.4800,250.000000,250.025311
2.4810,250.000000,249.995081
2.4820,250.000000,250.041247
2.4830,250.000000,250.008818
2.4840,250.000000,250.026718
2.4850,250.000000,250.027255
2.4860,250.000000,250.024119
2.4870,250.000000,250.029242
2.4880,250.000000,250.038298
2.4890,250.000000,250.021493
2.4900,250.000000,250.008021
2.4910,250.000000,250.018968
2.4920,250.000000,250.010702
2.4930,250.000000,249.993957
2.4940,250.000000,250.002308
2.4950,250.000000,249.989551
2.4960,250.000000,249.988580
2.4970,250.000000,250.015872
2.4980,250.000000,250.013975
2.4990,250.000000,250.023233
2.5000,250.000000,250.026095
2.5010,250.000000,250.008151
2.5020,250.000000,250.040886
2.5030,250.000000,250.024889
2.5040,250.000000,250.045511
2.5050,250.000000,250.030426
2.5060,250.000000,250.036165
2.5070,250.000000,250.034290
2.5080,250.000000,250.037748
2.5090,250.000000,249.996519
2.5100,250.000000,249.992394
2.5110,250.000000,250.021119
2.5120,250.000000,250.011876
2.5130,250.000000,249.991304
2.5140,250.000000,250.006079
2.5150,250.000000,249.978660
2.5160,250.000000,250.049475
2.5170,250.000000,250.022405
2.5180,250.000000,250.015554
2.5190,250.000000,250.011762
2.5200,250.000000,250.006240
2.5210,250.000000,250.000761
2.5220,250.000000,250.023115
2.5230,250.000000,250.015415
2.5240,250.000000,250.018511
2.5250,250.000000,250.010013
2.5260,250.000000,250.034175
2.5270,250.000000,250.022452
2.5280,250.000000,250.032543
2.5290,250.000000,250.026862
2.5300,250.000000,250.018453
2.5310,250.000000,250.049907
2.5320,250.001465,250.019326
2.5330,250.001785,249.984792
2.5340,250.002164,250.008638
2.5350,250.002610,250.000559
2.5360,250.003133,249.982502
2.5370,250.003742,249.984132
2.5380,250.004446,250.016449
2.5390,250.005257,250.025335
2.5400,250.006184,250.005000
2.5410,250.007239,250.041196
2.5420,250.008432,250.036521
2.5430,250.009772,250.055016
2.5440,250.011269,250.057142
2.5450,250.012930,250.040816
2.5460,250.014762,250.068726
2.5470,250.016769,250.027016
2.5480,250.018954,250.078329
2.5490,250.021317,250.027147
2.5500,250.023856,250.037154
2.5510,250.026563,250.027081
2.5520,250.029430,250.028295
2.5530,250.032444,250.077226
2.5540,250.035589,250.027256
2.5550,250.038843,250.049386
2.5560,250.042183,250.037164
2.5570,250.045583,250.060367
2.5580,250.049010,250.045075
2.5590,250.052433,250.064914
2.5600,250.055814,250.078781
2.5610,250.059117,250.066723
2.5620,250.062304,250.126516
2.5630,250.065335,250.101887
2.5640,250.068172,250.093345
2.5650,250.070776,250.089617
2.5660,250.073114,250.102959
2.5670,250.075153,250.083062
2.5680,250.076863,250.126160
2.5690,250.078220,250.102744
2.5700,250.079204,250.090948
2.5710,250.079800,250.103563
2.5720,250.080000,250.072743
2.5730,250.079800,250.062440
2.5740,250.079204,250.074913
2.5750,250.078220,250.076964
2.5760,250.076863,250.082390
2.5770,250.075153,250.052803
2.5780,250.073114,250.069558
2.5790,250.070776,250.032227
2.5800,250.068172,250.063037
2.5810,250.065335,250.093563
2.5820,250.062304,250.098633
2.5830,250.059117,250.067395
2.5840,250.055814,250.078580
2.5850,250.052433,250.081189
2.5860,250.049010,250.092726
2.5870,250.045583,250.093745
2.5880,250.042183,250.066121
2.5890,250.038843,250.052070
2.5900,250.035589,250.026080
2.5910,250.032444,250.041223
2.5920,250.029430,250.063207
2.5930,250.026563,250.044984
2.5940,250.023856,250.023230
2.5950,250.021317,250.021792
2.5960,250.018954,250.005289
2.5970,250.016769,250.010302
2.5980,250.014762,250.019362
2.5990,250.012930,250.021991
2.6000,250.011269,250.038132
2.6010,250.009772,250.040806
2.6020,250.008432,250.037260
2.6030,250.007239,250.016767
2.6040,250.006184,250.018507
2.6050,250.005257,250.019422
2.6060,250.004446,250.034636
2.6070,250.003742,249.997688
2.6080,250.003133,250.023797
2.6090,250.002610,250.039995
2.6100,250.002164,250.023434
2.6110,250.001785,250.002805
2.6120,250.000000,249.991303
2.6130,250.000000,250.010280
2.6140,250.000000,250.000470
2.6150,250.000000,249.991357
2.6160,250.000000,249.986959
2.6170,250.000000,249.999170
2.6180,250.000000,249.996976
2.6190,250.000000,250.017705
2.6200,250.000000,250.029459
2.6210,250.000000,249.995235
2.6220,250.000000,250.001775
2.6230,250.000000,250.043881
2.6240,250.000000,250.028379
2.6250,250.000000,250.009658
2.6260,250.000000,250.040557
2.6270,250.000000,250.028619
2.6280,250.000000,250.052962
2.6290,250.000000,250.011882
2.6300,250.000000,250.027056
2.6310,250.000000,249.983708
2.6320,250.000000,250.021880
2.6330,249.983367,249.994888
2.6340,249.967461,249.986571
2.6350,249.952977,249.963857
2.6360,249.940548,249.934026
2.6370,249.930718,249.910347
2.6380,249.923915,249.915580
2.6390,249.920438,249.899136
2.6400,249.935091,249.931296
2.6410,249.951673,249.972984
2.6420,249.980459,249.999086
2.6430,250.024868,250.044357
2.6440,250.088188,250.101367
2.6450,250.172562,250.171795
2.6460,250.277671,250.305398
2.6470,250.399481,250.427853
2.6480,250.512944,250.517176
2.6490,250.623041,250.629644
2.6500,250.715871,250.748625
2.6510,250.778084,250.800114
2.6520,250.800000,250.777873
2.6530,250.778084,250.773374
2.6540,250.715871,250.731944
2.6550,250.623041,250.613221
2.6560,250.512944,250.503081
2.6570,250.399481,250.412278
2.6580,250.294304,250.309016
2.6590,250.205101,250.223458
2.6600,250.135211,250.140515
2.6610,250.084319,250.108403
2.6620,250.049741,250.090724
2.6630,250.027757,250.049073
2.6640,250.000000,250.018247
2.6650,250.000000,250.043495
2.6660,250.000000,250.054904
2.6670,250.000000,250.053637
2.6680,250.000000,250.012717
2.6690,250.000000,250.009727
2.6700,250.000000,249.993418
2.6710,250.000000,250.005645
2.6720,249.880000,249.863264
2.6730,249.896715,249.884615
2.6740,249.911102,249.915108
2.6750,249.923485,249.922004
2.6760,249.934143,249.900398
2.6770,249.943316,249.962522
2.6780,249.951212,249.934061
2.6790,249.958007,249.947172
2.6800,249.963857,249.953759
2.6810,249.968891,249.972366
2.6820,249.973224,249.977590
2.6830,249.976954,249.985189
2.6840,249.980164,249.966758
2.6850,249.982927,250.009181
2.6860,249.985305,250.012272
2.6870,249.987352,250.042196
2.6880,249.989114,250.014011
2.6890,249.990630,249.996287
2.6900,249.991935,249.982051
2.6910,249.993059,249.994761
2.6920,250.000000,250.005382
2.6930,250.000000,249.987526
2.6940,250.000000,249.993683
2.6950,250.000000,250.020410
2.6960,250.000000,249.986936
2.6970,250.000000,249.966634
2.6980,250.000000,250.011543
2.6990,250.000000,250.007581
2.7000,250.000000,249.982141
2.7010,250.000000,250.019100
2.7020,250.000000,250.002143
2.7030,250.000000,250.027236
2.7040,250.000000,250.051464
2.7050,250.000000,250.020949
2.7060,250.000000,250.039036
2.7070,250.000000,250.002053
2.7080,250.000000,249.994115
2.7090,250.000000,250.042673
2.7100,250.000000,250.012051
2.7110,250.000000,250.012006
2.7120,250.000000,250.015243
2.7130,250.000000,249.986472
2.7140,250.000000,250.004460
2.7150,250.000000,250.001370
2.7160,250.000000,249.972595
2.7170,250.000000,250.016951
2.7180,250.000000,250.017366
2.7190,250.000000,249.982935
2.7200,250.000000,250.010106
2.7210,250.000000,250.008547
2.7220,250.000000,250.037716
2.7230,250.000000,249.998789
2.7240,250.000000,250.076225
2.7250,250.000000,250.020322
2.7260,250.000000,250.033201
2.7270,250.000000,250.040631
2.7280,250.000000,250.013307
2.7290,250.000000,250.010031
2.7300,250.000000,249.999236
2.7310,250.000000,249.988521
2.7320,250.004396,250.005784
2.7330,250.004855,249.996565
2.7340,250.005356,249.989150
2.7350,250.005900,249.989756
2.7360,250.006492,250.006508
2.7370,250.007135,249.988785
2.7380,250.007831,250.001249
2.7390,250.008585,250.023616
2.7400,250.009399,250.019572
2.7410,250.010278,250.005913
2.7420,250.011225,250.026674
2.7430,250.012244,250.038116
2.7440,250.013338,250.049736
2.7450,250.014513,250.025493
2.7460,250.015770,250.028890
2.7470,250.017116,250.025883
2.7480,250.018553,250.024495
2.7490,250.020086,250.037295
2.7500,250.021718,250.036795
2.7510,250.023453,250.040402
2.7520,250.025296,250.020623
2.7530,250.027249,249.999295
2.7540,250.029316,250.030181
2.7550,250.031501,250.023898
2.7560,250.033806,250.025470
2.7570,250.036235,250.009991
2.7580,250.038789,250.032369
2.7590,250.041472,250.024515
2.7600,250.044285,250.057378
2.7610,250.047229,250.051560
2.7620,250.050307,250.057724
2.7630,250.053518,250.049181
2.7640,250.056863,250.093234
2.7650,250.060341,250.078181
2.7660,250.063952,250.086164
2.7670,250.067695,250.075269
2.7680,250.071567,250.061846
2.7690,250.075567,250.078141
2.7700,250.079690,250.079693
2.7710,250.083933,250.088928
2.7720,250.088291,250.079081
2.7730,250.092760,250.074532
2.7740,250.097333,250.065030
2.7750,250.102004,250.092167
2.7760,250.106766,250.085009
2.7770,250.111610,250.123859
2.7780,250.116529,250.114729
2.7790,250.121512,250.130325
2.7800,250.126550,250.128116
2.7810,250.131632,250.144866
2.7820,250.136748,250.138035
2.7830,250.141885,250.142372
2.7840,250.147030,250.167663
2.7850,250.152172,250.181890
2.7860,250.157298,250.148462
2.7870,250.162392,250.172958
2.7880,250.167442,250.209560
2.7890,250.172434,250.189621
2.7900,250.177352,250.205445
2.7910,250.182183,250.172730
2.7920,250.186912,250.175614
2.7930,250.191524,250.198030
2.7940,250.196005,250.195063
2.7950,250.200340,250.187820
2.7960,250.204515,250.175230
2.7970,250.208516,250.217769
2.7980,250.212329,250.245397
2.7990,250.215943,250.192214
2.8000,250.219343,250.245165
2.8010,250.222519,250.225181
2.8020,250.225459,250.234578
2.8030,250.228152,250.249832
2.8040,250.230589,250.232389
2.8050,250.232761,250.252844
2.8060,250.234660,250.230323
2.8070,250.236279,250.260954
2.8080,250.237612,250.285087
2.8090,250.238654,250.238545
2.8100,250.239401,250.241384
2.8110,250.239850,250.237604
2.8120,250.240000,250.249858
2.8130,250.239850,250.237430
2.8140,250.239401,250.242405
2.8150,250.238654,250.219452
2.8160,250.237612,250.233266
2.8170,250.236279,250.177161
2.8180,250.234660,250.239587
2.8190,250.232761,250.213845
2.8200,250.230589,250.229946
2.8210,250.228152,250.248522
2.8220,250.225459,250.216045
2.8230,250.222519,250.256004
2.8240,250.219343,250.236871
2.8250,250.215943,250.257892
2.8260,250.212329,250.218132
2.8270,250.208516,250.198373
2.8280,250.204515,250.217567
2.8290,250.200340,250.218148
2.8300,250.196005,250.210104
2.8310,250.191524,250.173560
2.8320,250.186912,250.157127
2.8330,250.182183,250.168520
2.8340,250.177352,250.173826
2.8350,250.172434,250.167341
2.8360,250.167442,250.179705
2.8370,250.162392,250.147721
2.8380,250.157298,250.124072
2.8390,250.152172,250.169008
2.8400,250.147030,250.153766
2.8410,250.141885,250.154847
2.8420,250.136748,250.161422
2.8430,250.131632,250.167273
2.8440,250.126550,250.145141
2.8450,250.121512,250.158858
2.8460,250.116529,250.143703
2.8470,250.111610,250.118375
2.8480,250.106766,250.116304
2.8490,250.102004,250.119810
2.8500,250.097333,250.090290
2.8510,250.092760,250.104680
2.8520,250.088291,250.084805
2.8530,250.083933,250.080237
2.8540,250.079690,250.089584
2.8550,250.075567,250.068398
2.8560,250.071567,250.060883
2.8570,250.067695,250.056952
2.8580,250.063952,250.055948
2.8590,250.060341,250.063480
2.8600,250.056863,250.080690
2.8610,250.053518,250.052643
2.8620,250.050307,250.052736
2.8630,250.047229,250.082765
2.8640,250.044285,250.054305
2.8650,250.041472,250.063989
2.8660,250.038789,250.048384
2.8670,250.036235,250.027222
2.8680,250.033806,250.049399
2.8690,250.031501,250.056368
2.8700,250.029316,250.031560
2.8710,250.027249,250.003235
2.8720,250.025296,250.020663
2.8730,250.023453,250.002286
2.8740,250.021718,249.970305
2.8750,250.020086,250.005949
2.8760,250.018553,250.014159
2.8770,250.017116,250.024875
2.8780,250.015770,250.035737
2.8790,250.014513,250.022331
2.8800,250.013338,250.030322
2.8810,250.012244,250.000880
2.8820,250.011225,250.047899
2.8830,250.010278,250.045156
2.8840,250.009399,250.022014
2.8850,250.008585,250.037695
2.8860,250.007831,250.034631
2.8870,250.007135,250.044981
2.8880,250.006492,250.016460
2.8890,250.005900,250.002462
2.8900,250.005356,250.000798
2.8910,250.004855,250.016137
2.8920,250.000000,249.964554
2.8930,250.000000,249.944838
2.8940,250.000000,250.000917
2.8950,250.000000,249.990824
2.8960,250.000000,249.987744
2.8970,250.000000,249.970139
2.8980,250.000000,249.967595
2.8990,250.000000,249.988168
2.9000,250.000000,250.008039
2.9010,250.000000,249.998753
2.9020,250.000000,250.025484
2.9030,250.000000,250.001194
2.9040,250.000000,250.009970
2.9050,250.000000,250.029074
2.9060,250.000000,250.012072
2.9070,250.000000,250.010526
2.9080,250.000000,250.002227
2.9090,250.000000,249.994968
2.9100,250.000000,250.007754
2.9110,250.000000,250.004736
2.9120,250.000000,249.996410
2.9130,250.000000,249.980204
2.9140,250.000000,249.984135
2.9150,250.000000,250.010297
2.9160,250.000000,249.965808
2.9170,250.000000,250.017669
2.9180,250.000000,249.994400
2.9190,250.000000,249.994646
2.9200,250.000000,250.016577
2.9210,250.000000,249.976196
2.9220,250.000000,250.032354
2.9230,250.000000,250.043039
2.9240,250.000000,250.033749
2.9250,250.000000,249.986662
2.9260,250.000000,250.028860
2.9270,250.000000,250.039800
2.9280,250.000000,250.034696
2.9290,250.000000,249.985957
2.9300,250.000000,250.017364
2.9310,250.000000,250.024093
2.9320,250.000000,249.993126
2.9330,250.000000,249.967338
2.9340,250.000000,249.999271
2.9350,250.000000,250.001851
2.9360,250.000000,249.984723
2.9370,250.000000,249.971208
2.9380,250.000000,250.007322
2.9390,250.000000,249.985507
2.9400,250.000000,250.007929
2.9410,250.000000,250.030271
2.9420,250.000000,249.986462
2.9430,250.000000,250.028486
2.9440,250.000000,250.014029
2.9450,250.000000,250.015186
2.9460,250.000000,250.024814
2.9470,250.000000,250.003241
2.9480,250.000000,249.993633
2.9490,250.000000,249.980021
2.9500,250.000000,250.020302
2.9510,250.000000,249.991292
2.9520,250.000000,250.000942
2.9530,250.000000,249.981564
2.9540,250.000000,249.969127
2.9550,250.000000,249.995541
2.9560,250.000000,249.991445
2.9570,250.000000,249.985232
2.9580,250.000000,249.996840
2.9590,250.000000,249.982351
2.9600,250.000000,250.017598
2.9610,250.000000,250.026006
2.9620,250.000000,250.022457
2.9630,250.000000,250.009014
2.9640,250.000000,250.017744
2.9650,250.000000,250.041156
2.9660,250.000000,250.036045
2.9670,250.000000,250.044450
2.9680,250.000000,249.999282
2.9690,250.000000,249.993463
2.9700,250.000000,250.003575
2.9710,250.000000,250.002706
2.9720,250.000000,249.989996
2.9730,250.000000,249.982733
2.9740,250.000000,250.005304
2.9750,250.000000,249.984136
2.9760,250.000000,249.968040
2.9770,250.000000,249.972033
2.9780,250.000000,249.995762
2.9790,250.000000,250.041544
2.9800,250.000000,249.986798
2.9810,250.000000,250.001646
2.9820,250.000000,250.046889
2.9830,250.000000,250.007081
2.9840,250.000000,250.023438
2.9850,250.000000,250.045516
2.9860,250.000000,250.002311
2.9870,250.000000,250.009660
2.9880,250.000000,250.003482
2.9890,250.000000,249.983507
2.9900,250.000000,250.024861
2.9910,250.000000,249.987584
2.9920,250.000000,249.978749
2.9930,250.000000,249.981676
2.9940,250.000000,249.999991
2.9950,250.000000,249.986958
2.9960,250.000000,249.974161
2.9970,250.000000,249.994435
2.9980,250.000000,250.004016
2.9990,250.000000,249.995920
3.0000,250.000000,249.997689
3.0010,250.000000,250.021382
3.0020,250.000000,250.007905
3.0030,250.000000,250.038245
3.0040,250.000000,250.005020
3.0050,250.000000,250.005443
3.0060,250.000000,250.002807
3.0070,250.000000,250.010498
3.0080,250.000000,250.010568
3.0090,250.000000,249.986176
3.0100,250.000000,250.002557
3.0110,250.000000,250.004632
3.0120,250.000000,249.969699
3.0130,250.000000,249.980314
3.0140,250.000000,249.994361
3.0150,250.001465,249.970180
3.0160,250.001785,249.982875
3.0170,250.002164,250.006579
3.0180,250.002610,250.021161
3.0190,250.003133,250.005805
3.0200,250.003742,250.002211
3.0210,250.004446,250.002868
3.0220,250.005257,250.029312
3.0230,250.006184,250.037109
3.0240,250.007239,250.006080
3.0250,250.008432,250.039049
3.0260,250.009772,250.016835
3.0270,250.011269,250.012262
3.0280,250.012930,250.020963
3.0290,250.014762,250.035505
3.0300,250.016769,250.022326
3.0310,250.018954,250.019152
3.0320,250.021317,250.018097
3.0330,250.023856,250.018816
3.0340,250.026563,250.010514
3.0350,250.029430,250.023780
3.0360,250.032444,250.008195
3.0370,250.035589,250.033264
3.0380,250.038843,250.043139
3.0390,250.042183,250.048564
3.0400,250.045583,250.057677
3.0410,250.049010,250.061748
3.0420,250.052433,250.080251
3.0430,250.055814,250.035488
3.0440,250.059117,250.087937
3.0450,250.062304,250.108724
3.0460,250.065335,250.072003
3.0470,250.068172,250.070882
3.0480,250.070776,250.100240
3.0490,250.073114,250.064914
3.0500,250.075153,250.065900
3.0510,250.076863,250.075208
3.0520,250.078220,250.057564
3.0530,250.079204,250.080110
3.0540,250.079800,250.053439
3.0550,250.080000,250.070119
3.0560,250.079800,250.069553
3.0570,250.079204,250.091913
3.0580,250.078220,250.086982
3.0590,250.076863,250.064656
3.0600,250.075153,250.056858
3.0610,250.073114,250.091294
3.0620,250.070776,250.071038
3.0630,250.068172,250.076732
3.0640,250.065335,250.065298
3.0650,250.062304,250.089126
3.0660,250.059117,250.065267
3.0670,250.055814,250.068855
3.0680,250.052433,250.062160
3.0690,250.049010,250.057317
3.0700,250.045583,250.056109
3.0710,250.042183,250.034192
3.0720,250.038843,250.018906
3.0730,250.035589,249.995333
3.0740,250.032444,250.019342
3.0750,250.029430,250.011644
3.0760,250.026563,250.001251
3.0770,250.023856,250.012406
3.0780,250.021317,250.025302
3.0790,250.018954,250.031231
3.0800,250.016769,249.994279
3.0810,250.014762,250.014823
3.0820,250.012930,250.037274
3.0830,250.011269,250.048672
3.0840,250.009772,250.013242
3.0850,250.008432,250.045613
3.0860,250.007239,250.002705
3.0870,250.006184,250.036847
3.0880,250.005257,250.010923
3.0890,250.004446,250.033315
3.0900,250.003742,249.997257
3.0910,250.003133,249.994011
3.0920,250.002610,249.991670
3.0930,250.002164,249.966623
3.0940,250.001785,249.960584
3.0950,250.000000,249.992100
3.0960,250.000000,250.000052
3.0970,250.000000,249.996606
3.0980,250.000000,249.972217
3.0990,250.000000,250.002684
3.1000,250.000000,249.985567
3.1010,250.000000,250.011474
3.1020,250.000000,250.026784
3.1030,250.000000,250.018861
3.1040,250.000000,250.037644
3.1050,250.000000,250.014144
3.1060,250.000000,250.012356
3.1070,250.000000,250.014338
3.1080,250.000000,249.989644
3.1090,250.000000,249.999274
3.1100,250.000000,249.995642
3.1110,250.000000,249.991160
3.1120,250.000000,249.994979
3.1130,250.000000,249.965205
3.1140,250.000000,249.967948
3.1150,250.000000,250.001326
3.1160,249.983367,249.938382
3.1170,249.967461,249.964098
3.1180,249.952977,249.938300
3.1190,249.940548,249.938332
3.1200,249.930718,249.954411
3.1210,249.923915,249.927209
3.1220,249.920438,249.939537
3.1230,249.935091,249.949222
3.1240,249.951673,249.965553
3.1250,249.980459,249.993261
3.1260,250.024868,250.050896
3.1270,250.088188,250.090449
3.1280,250.172562,250.165273
3.1290,250.277671,250.284015
3.1300,250.399481,250.402652
3.1310,250.512944,250.480913
3.1320,250.623041,250.613750
3.1330,250.715871,250.684791
3.1340,250.778084,250.772532
3.1350,250.800000,250.757204
3.1360,250.778084,250.791998
3.1370,250.715871,250.698105
3.1380,250.623041,250.600909
3.1390,250.512944,250.503999
3.1400,250.399481,250.408065
3.1410,250.294304,250.312841
3.1420,250.205101,250.210623
3.1430,250.135211,250.126804
3.1440,250.084319,250.081577
3.1450,250.049741,250.070259
3.1460,250.027757,250.058003
3.1470,250.000000,250.029921
3.1480,250.000000,250.012138
3.1490,250.000000,250.019662
3.1500,250.000000,250.028890
3.1510,250.000000,250.013112
3.1520,250.000000,250.004624
3.1530,250.000000,249.975152
3.1540,250.000000,249.999414
3.1550,249.880000,249.871107
3.1560,249.896715,249.891443
3.1570,249.911102,249.917256
3.1580,249.923485,249.919638
3.1590,249.934143,249.927836
3.1600,249.943316,249.927441
3.1610,249.951212,249.951878
3.1620,249.958007,249.970772
3.1630,249.963857,249.981130
3.1640,249.968891,249.987928
3.1650,249.973224,250.003776
3.1660,249.976954,250.005307
3.1670,249.980164,249.992330
3.1680,249.982927,249.979773
3.1690,249.985305,249.996148
3.1700,249.987352,250.021192
3.1710,249.989114,249.989131
3.1720,249.990630,249.976927
3.1730,249.991935,249.987166
3.1740,249.993059,249.986913
3.1750,250.000000,249.992902
3.1760,250.000000,250.005506
3.1770,250.000000,249.992974
3.1780,250.000000,250.010601
3.1790,250.000000,249.998632
3.1800,250.000000,250.022808
3.1810,250.000000,250.023163
3.1820,250.000000,250.023347
3.1830,250.000000,250.024895
3.1840,250.000000,250.049851
3.1850,250.000000,250.032258
3.1860,250.000000,250.002584
3.1870,250.000000,250.016737
3.1880,250.000000,250.005536
3.1890,250.000000,250.036012
3.1900,250.000000,250.018870
3.1910,250.000000,250.025631
3.1920,250.000000,249.979290
3.1930,250.000000,250.003673
3.1940,250.000000,249.964405
3.1950,250.000000,249.960206
3.1960,250.000000,249.978915
3.1970,250.000000,250.009826
3.1980,250.000000,249.975789
3.1990,250.000000,249.994884
3.2000,250.000000,250.017912
3.2010,250.000000,250.017718
3.2020,250.000000,250.042723
3.2030,250.000000,250.013069
3.2040,250.000000,250.008665
3.2050,250.000000,249.999653
3.2060,250.000000,250.009766
3.2070,250.000000,249.996458
3.2080,250.000000,249.982524
3.2090,250.000000,250.034459
3.2100,250.000000,250.000796
3.2110,250.000000,250.033989
3.2120,250.000000,249.978066
3.2130,250.000000,249.980682
3.2140,250.000000,249.973209
3.2150,250.004396,249.978840
3.2160,250.004855,250.002796
3.2170,250.005356,250.000959
3.2180,250.005900,250.009678
3.2190,250.006492,250.021732
3.2200,250.007135,250.023794
3.2210,250.007831,249.997696
3.2220,250.008585,250.010178
3.2230,250.009399,250.024211
3.2240,250.010278,250.081456
3.2250,250.011225,250.038853
3.2260,250.012244,250.029102
3.2270,250.013338,250.036422
3.2280,250.014513,250.014909
3.2290,250.015770,250.024689
3.2300,250.017116,250.031473
3.2310,250.018553,250.013210
3.2320,250.020086,249.999368
3.2330,250.021718,250.007639
3.2340,250.023453,250.003476
3.2350,250.025296,249.988971
3.2360,250.027249,250.003490
3.2370,250.029316,249.995510
3.2380,250.031501,250.003573
3.2390,250.033806,250.011776
3.2400,250.036235,250.050564
3.2410,250.038789,250.066097
3.2420,250.041472,250.027861
3.2430,250.044285,250.080956
3.2440,250.047229,250.045571
3.2450,250.050307,250.077533
3.2460,250.053518,250.072635
3.2470,250.056863,250.079366
3.2480,250.060341,250.052280
3.2490,250.063952,250.041731
3.2500,250.067695,250.055671
3.2510,250.071567,250.073045
3.2520,250.075567,250.095534
3.2530,250.079690,250.051317
3.2540,250.083933,250.067250
3.2550,250.088291,250.061071
3.2560,250.092760,250.077300
3.2570,250.097333,250.055442
3.2580,250.102004,250.115085
3.2590,250.106766,250.102196
3.2600,250.111610,250.125381
3.2610,250.116529,250.118003
3.2620,250.121512,250.133788
3.2630,250.126550,250.156439
3.2640,250.131632,250.148836
3.2650,250.136748,250.155274
3.2660,250.141885,250.145203
3.2670,250.147030,250.151968
3.2680,250.152172,250.146394
3.2690,250.157298,250.151180
3.2700,250.162392,250.181169
3.2710,250.167442,250.189635
3.2720,250.172434,250.144328
3.2730,250.177352,250.170343
3.2740,250.182183,250.162208
3.2750,250.186912,250.191873
3.2760,250.191524,250.178336
3.2770,250.196005,250.182954
3.2780,250.200340,250.179769
3.2790,250.204515,250.176599
3.2800,250.208516,250.219935
3.2810,250.212329,250.222573
3.2820,250.215943,250.231014
3.2830,250.219343,250.223302
3.2840,250.222519,250.235554
3.2850,250.225459,250.253329
3.2860,250.228152,250.258105
3.2870,250.230589,250.225860
3.2880,250.232761,250.232669
3.2890,250.234660,250.218759
3.2900,250.236279,250.239301
3.2910,250.237612,250.245935
3.2920,250.238654,250.225071
3.2930,250.239401,250.216516
3.2940,250.239850,250.219606
3.2950,250.240000,250.258597
3.2960,250.239850,250.242514
3.2970,250.239401,250.237423
3.2980,250.238654,250.234052
3.2990,250.237612,250.232478
3.3000,250.236279,250.222681
3.3010,250.234660,250.223680
3.3020,250.232761,250.233648
3.3030,250.230589,250.229228
3.3040,250.228152,250.234253
3.3050,250.225459,250.239931
3.3060,250.222519,250.237357
3.3070,250.219343,250.222983
3.3080,250.215943,250.232776
3.3090,250.212329,250.214439
3.3100,250.208516,250.211737
3.3110,250.204515,250.188402
3.3120,250.200340,250.201328
3.3130,250.196005,250.175038
3.3140,250.191524,250.200436
3.3150,250.186912,250.167538
3.3160,250.182183,250.165546
3.3170,250.177352,250.173312
3.3180,250.172434,250.175207
3.3190,250.167442,250.176292
3.3200,250.162392,250.189026
3.3210,250.157298,250.172170
3.3220,250.152172,250.160572
3.3230,250.147030,250.152030
3.3240,250.141885,250.155094
3.3250,250.136748,250.175008
3.3260,250.131632,250.126045
3.3270,250.126550,250.127209
3.3280,250.121512,250.127632
3.3290,250.116529,250.108988
3.3300,250.111610,250.105479
3.3310,250.106766,250.128915
3.3320,250.102004,250.088128
3.3330,250.097333,250.090564
3.3340,250.092760,250.052670
3.3350,250.088291,250.055755
3.3360,250.083933,250.082706
3.3370,250.079690,250.091766
3.3380,250.075567,250.069483
3.3390,250.071567,250.062033
3.3400,250.067695,250.075138
3.3410,250.063952,250.029935
3.3420,250.060341,250.073182
3.3430,250.056863,250.054115
3.3440,250.053518,250.080646
3.3450,250.050307,250.033422
3.3460,250.047229,250.053020
3.3470,250.044285,250.056614
3.3480,250.041472,250.039449
3.3490,250.038789,250.038101
3.3500,250.036235,250.049801
3.3510,250.033806,250.028494
3.3520,250.031501,250.008137
3.3530,250.029316,250.030478
3.3540,250.027249,250.015796
3.3550,250.025296,250.013683
3.3560,250.023453,249.994848
3.3570,250.021718,249.970559
3.3580,250.020086,249.997089
3.3590,250.018553,249.998490
3.3600,250.017116,250.007916
3.3610,250.015770,250.008086
3.3620,250.014513,250.025607
3.3630,250.013338,250.039495
3.3640,250.012244,250.043602
3.3650,250.011225,250.039782
3.3660,250.010278,250.012029
3.3670,250.009399,250.023226
3.3680,250.008585,250.041466
3.3690,250.007831,249.989003
3.3700,250.007135,250.027357
3.3710,250.006492,249.986605
3.3720,250.005900,250.000900
3.3730,250.005356,249.998601
3.3740,250.004855,249.992485
3.3750,250.000000,250.017425
3.3760,250.000000,249.980268
3.3770,250.000000,249.962461
3.3780,250.000000,249.995939
3.3790,250.000000,249.992502
3.3800,250.000000,250.008319
3.3810,250.000000,250.018172
3.3820,250.000000,250.008895
3.3830,250.000000,250.019485
3.3840,250.000000,250.017376
3.3850,250.000000,250.042874
3.3860,250.000000,250.009654
3.3870,250.000000,250.002633
3.3880,250.000000,250.022610
3.3890,250.000000,249.991001
3.3900,250.000000,250.005876
3.3910,250.000000,249.992505
3.3920,250.000000,249.989069
3.3930,250.000000,250.023608
3.3940,250.000000,250.003287
3.3950,250.000000,249.999316
3.3960,250.000000,249.992733
3.3970,250.000000,249.976674
3.3980,250.000000,249.994509
3.3990,250.000000,250.003796
3.4000,250.000000,250.002975
3.4010,250.000000,250.006355
3.4020,250.000000,250.003432
3.4030,250.000000,250.017035
3.4040,250.000000,250.007322
3.4050,250.000000,250.026539
3.4060,250.000000,249.984968
3.4070,250.000000,250.033312
3.4080,250.000000,249.989716
3.4090,250.000000,249.988921
3.4100,250.000000,250.006118
3.4110,250.000000,250.003139
3.4120,250.000000,250.021753
3.4130,250.000000,249.991483
3.4140,250.000000,249.984159
3.4150,250.000000,249.986851
3.4160,250.000000,250.008622
3.4170,250.000000,250.023402
3.4180,250.000000,249.987803
3.4190,250.000000,250.003176
3.4200,250.000000,249.998862
3.4210,250.000000,250.003508
3.4220,250.000000,250.037567
3.4230,250.000000,249.999034
3.4240,250.000000,249.980178
3.4250,250.000000,250.020736
3.4260,250.000000,250.033205
3.4270,250.000000,250.016215
3.4280,250.000000,250.016909
3.4290,250.000000,250.016201
3.4300,250.000000,250.001633
3.4310,250.000000,250.003369
3.4320,250.000000,249.998658
3.4330,250.000000,249.957644
3.4340,250.000000,249.986457
3.4350,250.000000,249.960373
3.4360,250.000000,249.984174
3.4370,250.000000,249.979589
3.4380,250.000000,250.006067
3.4390,250.000000,249.998683
3.4400,250.000000,250.007057
3.4410,250.000000,250.002031
3.4420,250.000000,250.025144
3.4430,250.000000,249.988940
3.4440,250.000000,250.001739
3.4450,250.000000,250.035248
3.4460,250.000000,250.008634
3.4470,250.000000,249.980708
3.4480,250.000000,250.031144
3.4490,250.000000,250.021047
3.4500,250.000000,250.010612
3.4510,250.000000,249.996417
3.4520,250.000000,250.015451
3.4530,250.000000,250.005878
3.4540,250.000000,250.007942
3.4550,250.000000,249.994372
3.4560,250.000000,249.986563
3.4570,250.000000,249.981005
3.4580,250.000000,249.971497
3.4590,250.000000,250.002520
3.4600,250.000000,250.008713
3.4610,250.000000,249.999628
3.4620,250.000000,250.018539
3.4630,250.000000,250.007889
3.4640,250.000000,250.028154
3.4650,250.000000,250.002692
3.4660,250.000000,249.999312
3.4670,250.000000,250.009256
3.4680,250.000000,250.021755
3.4690,250.000000,249.987479
3.4700,250.000000,250.015660
3.4710,250.000000,249.970330
3.4720,250.000000,249.986805
3.4730,250.000000,249.965769
3.4740,250.000000,249.945542
3.4750,250.000000,249.989402
3.4760,250.000000,249.982019
3.4770,250.000000,249.966000
3.4780,250.000000,249.982745
3.4790,250.000000,250.001580
3.4800,250.000000,249.994373
3.4810,250.000000,250.001857
3.4820,250.000000,250.003318
3.4830,250.000000,250.004098
3.4840,250.000000,250.006173
3.4850,250.000000,250.006513
3.4860,250.000000,250.003801
3.4870,250.000000,249.997564
3.4880,250.000000,250.003586
3.4890,250.000000,249.995220
3.4900,250.000000,249.983796
3.4910,250.000000,250.006415
3.4920,250.000000,250.008952
3.4930,250.000000,249.986919
3.4940,250.000000,249.985642
3.4950,250.000000,249.973471
3.4960,250.000000,250.000645
3.4970,250.000000,250.012983
3.4980,250.000000,249.987990
3.4990,250.000000,249.987083
3.5000,250.000000,250.004968
3.5010,250.000000,250.006721
3.5020,250.000000,250.001743
3.5030,250.000000,250.019850
3.5040,250.000000,250.029124
3.5050,250.000000,250.004044
3.5060,250.000000,250.053176
3.5070,250.000000,249.989776
3.5080,250.000000,249.996452
3.5090,250.000000,250.008274
3.5100,250.000000,250.033520
3.5110,250.000000,249.986430
3.5120,250.000000,249.974420
3.5130,250.000000,249.995102
3.5140,250.001465,249.982323
3.5150,250.001785,249.995565
3.5160,250.002164,249.985683
3.5170,250.002610,249.976603
3.5180,250.003133,250.028752
3.5190,250.003742,249.954269
3.5200,250.004446,250.031534
3.5210,250.005257,250.023980
3.5220,250.006184,250.004182
3.5230,250.007239,250.048043
3.5240,250.008432,250.002847
3.5250,250.009772,250.040660
3.5260,250.011269,249.995008
3.5270,250.012930,250.008445
3.5280,250.014762,250.006696
3.5290,250.016769,250.010205
3.5300,250.018954,250.018875
3.5310,250.021317,250.003727
3.5320,250.023856,249.983645
3.5330,250.026563,250.020306
3.5340,250.029430,250.014680
3.5350,250.032444,250.022306
3.5360,250.035589,250.022674
3.5370,250.038843,250.039932
3.5380,250.042183,250.031362
3.5390,250.045583,250.055538
3.5400,250.049010,250.037082
3.5410,250.052433,250.046300
3.5420,250.055814,250.085558
3.5430,250.059117,250.092091
3.5440,250.062304,250.085817
3.5450,250.065335,250.067684
3.5460,250.068172,250.068525
3.5470,250.070776,250.103318
3.5480,250.073114,250.101281
3.5490,250.075153,250.078811
3.5500,250.076863,250.111654
3.5510,250.078220,250.079818
3.5520,250.079204,250.052845
3.5530,250.079800,250.062370
3.5540,250.080000,250.064509
3.5550,250.079800,250.064735
3.5560,250.079204,250.082371
3.5570,250.078220,250.050561
3.5580,250.076863,250.047110
3.5590,250.075153,250.078863
3.5600,250.073114,250.065124
3.5610,250.070776,250.111683
3.5620,250.068172,250.091329
3.5630,250.065335,250.069997
3.5640,250.062304,250.095308
3.5650,250.059117,250.085662
3.5660,250.055814,250.080120
3.5670,250.052433,250.063121
3.5680,250.049010,250.064294
3.5690,250.045583,250.018550
3.5700,250.042183,250.061501
3.5710,250.038843,249.981914
3.5720,250.035589,250.019103
3.5730,250.032444,249.995109
3.5740,250.029430,250.006240
3.5750,250.026563,250.008985
3.5760,250.023856,249.990215
3.5770,250.021317,249.966278
3.5780,250.018954,250.012172
3.5790,250.016769,250.042631
3.5800,250.014762,250.008997
3.5810,250.012930,250.031762
3.5820,250.011269,250.042731
3.5830,250.009772,249.993702
3.5840,250.008432,250.016270
3.5850,250.007239,250.003567
3.5860,250.006184,250.008775
3.5870,250.005257,250.043192
3.5880,250.004446,250.016661
3.5890,250.003742,250.019967
3.5900,250.003133,250.001917
3.5910,250.002610,249.978943
3.5920,250.002164,250.002360
3.5930,250.001785,250.007052
3.5940,250.000000,249.988960
3.5950,250.000000,249.990746
3.5960,250.000000,249.965663
3.5970,250.000000,249.997054
3.5980,250.000000,250.010174
3.5990,250.000000,250.000506
3.6000,250.000000,249.972423
3.6010,250.000000,250.028847
3.6020,250.000000,249.994593
3.6030,250.000000,250.018115
3.6040,250.000000,250.028858
3.6050,250.000000,250.031534
3.6060,250.000000,249.987548
3.6070,250.000000,250.014028
3.6080,250.000000,250.009488
3.6090,250.000000,250.025840
3.6100,250.000000,250.006184
3.6110,250.000000,250.016073
3.6120,250.000000,249.997982
3.6130,250.000000,249.985223
3.6140,250.000000,249.986963
3.6150,249.983367,249.989486
3.6160,249.967461,249.932047
3.6170,249.952977,249.952871
3.6180,249.940548,249.920971
3.6190,249.930718,249.912370
3.6200,249.923915,249.938492
3.6210,249.920438,249.911354
3.6220,249.935091,249.949361
3.6230,249.951673,249.956484
3.6240,249.980459,249.959515
3.6250,250.024868,250.047218
3.6260,250.088188,250.104476
3.6270,250.172562,250.156023
3.6280,250.277671,250.275756
3.6290,250.399481,250.376472
3.6300,250.512944,250.523062
3.6310,250.623041,250.638050
3.6320,250.715871,250.718335
3.6330,250.778084,250.779093
3.6340,250.800000,250.776124
3.6350,250.778084,250.769387
3.6360,250.715871,250.699609
3.6370,250.623041,250.611957
3.6380,250.512944,250.516974
3.6390,250.399481,250.411233
3.6400,250.294304,250.287511
3.6410,250.205101,250.187975
3.6420,250.135211,250.140840
3.6430,250.084319,250.093001
3.6440,250.049741,250.068244
3.6450,250.027757,250.055260
3.6460,250.000000,249.985497
3.6470,250.000000,250.001870
3.6480,250.000000,249.993926
3.6490,250.000000,250.022677
3.6500,250.000000,249.995835
3.6510,250.000000,249.986313
3.6520,250.000000,249.997611
3.6530,250.000000,249.977091
3.6540,249.880000,249.863476
3.6550,249.896715,249.906837
3.6560,249.911102,249.921580
3.6570,249.923485,249.903320
3.6580,249.934143,249.920883
3.6590,249.943316,249.927957
3.6600,249.951212,249.921184
3.6610,249.958007,249.977344
3.6620,249.963857,250.008421
3.6630,249.968891,249.974013
3.6640,249.973224,249.975008
3.6650,249.976954,249.987669
3.6660,249.980164,249.995454
3.6670,249.982927,249.977625
3.6680,249.985305,249.986608
3.6690,249.987352,250.006285
3.6700,249.989114,249.989779
3.6710,249.990630,250.003485
3.6720,249.991935,249.986734
3.6730,249.993059,249.962502
3.6740,250.000000,249.974853
3.6750,250.000000,249.986425
3.6760,250.000000,249.966632
3.6770,250.000000,249.966947
3.6780,250.000000,249.971377
3.6790,250.000000,250.001446
3.6800,250.000000,249.993148
3.6810,250.000000,250.021311
3.6820,250.000000,249.994577
3.6830,250.000000,249.974690
3.6840,250.000000,250.011851
3.6850,250.000000,250.039297
3.6860,250.000000,250.014307
3.6870,250.000000,249.990922
3.6880,250.000000,249.983588
3.6890,250.000000,250.021448
3.6900,250.000000,249.986412
3.6910,250.000000,250.016694
3.6920,250.000000,249.998905
3.6930,250.000000,249.973998
3.6940,250.000000,250.000764
3.6950,250.000000,249.968603
3.6960,250.000000,249.961522
3.6970,250.000000,249.972491
3.6980,250.000000,250.000550
3.6990,250.000000,250.010536
3.7000,250.000000,249.992458
3.7010,250.000000,249.975305
3.7020,250.000000,249.984425
3.7030,250.000000,249.995289
3.7040,250.000000,249.994153
3.7050,250.000000,250.018314
3.7060,250.000000,250.042608
3.7070,250.000000,250.023187
3.7080,250.000000,249.990774
3.7090,250.000000,249.992808
3.7100,250.000000,249.990777
3.7110,250.000000,249.999147
3.7120,250.000000,250.012403
3.7130,250.000000,249.978270
3.7140,250.004396,250.010472
3.7150,250.004855,250.018611
3.7160,250.005356,249.983074
3.7170,250.005900,249.985491
3.7180,250.006492,249.989834
3.7190,250.007135,250.001270
3.7200,250.007831,250.000586
3.7210,250.008585,250.024905
3.7220,250.009399,249.993670
3.7230,250.010278,250.013288
3.7240,250.011225,250.029450
3.7250,250.012244,250.039351
3.7260,250.013338,250.059526
3.7270,250.014513,250.006148
3.7280,250.015770,250.013406
3.7290,250.017116,249.986061
3.7300,250.018553,249.999887
3.7310,250.020086,249.986575
3.7320,250.021718,250.002446
3.7330,250.023453,250.005021
3.7340,250.025296,250.015043
3.7350,250.027249,250.004677
3.7360,250.029316,250.019040
3.7370,250.031501,250.018144
3.7380,250.033806,250.006762
3.7390,250.036235,250.003841
3.7400,250.038789,250.045374
3.7410,250.041472,250.068927
3.7420,250.044285,250.089518
3.7430,250.047229,250.071988
3.7440,250.050307,250.085153
3.7450,250.053518,250.074190
3.7460,250.056863,250.074344
3.7470,250.060341,250.072669
3.7480,250.063952,250.069472
3.7490,250.067695,250.079431
3.7500,250.071567,250.061428
3.7510,250.075567,250.066064
3.7520,250.079690,250.050252
3.7530,250.083933,250.075732
3.7540,250.088291,250.056291
3.7550,250.092760,250.074853
3.7560,250.097333,250.087194
3.7570,250.102004,250.095402
3.7580,250.106766,250.106470
3.7590,250.111610,250.100986
3.7600,250.116529,250.121322
3.7610,250.121512,250.116642
3.7620,250.126550,250.103860
3.7630,250.131632,250.149982
3.7640,250.136748,250.153876
3.7650,250.141885,250.170501
3.7660,250.147030,250.159267
3.7670,250.152172,250.138450
3.7680,250.157298,250.162691
3.7690,250.162392,250.177981
3.7700,250.167442,250.171911
3.7710,250.172434,250.162598
3.7720,250.177352,250.140287
3.7730,250.182183,250.151123
3.7740,250.186912,250.176110
3.7750,250.191524,250.147785
3.7760,250.196005,250.173234
3.7770,250.200340,250.185173
3.7780,250.204515,250.209542
3.7790,250.208516,250.209953
3.7800,250.212329,250.223917
3.7810,250.215943,250.222542
3.7820,250.219343,250.213175
3.7830,250.222519,250.223348
3.7840,250.225459,250.223757
3.7850,250.228152,250.250066
3.7860,250.230589,250.232430
3.7870,250.232761,250.236809
3.7880,250.234660,250.241397
3.7890,250.236279,250.262818
3.7900,250.237612,250.244425
3.7910,250.238654,250.219053
3.7920,250.239401,250.229191
3.7930,250.239850,250.248573
3.7940,250.240000,250.230889
3.7950,250.239850,250.196734
3.7960,250.239401,250.207293
3.7970,250.238654,250.207649
3.7980,250.237612,250.246617
3.7990,250.236279,250.246957
3.8000,250.234660,250.222043
3.8010,250.232761,250.224745
3.8020,250.230589,250.237382
3.8030,250.228152,250.238914
3.8040,250.225459,250.222918
3.8050,250.222519,250.231439
3.8060,250.219343,250.209392
3.8070,250.215943,250.244587
3.8080,250.212329,250.191923
3.8090,250.208516,250.183462
3.8100,250.204515,250.207593
3.8110,250.200340,250.173374
3.8120,250.196005,250.175596
3.8130,250.191524,250.176017
3.8140,250.186912,250.178293
3.8150,250.182183,250.159314
3.8160,250.177352,250.185248
3.8170,250.172434,250.155887
3.8180,250.167442,250.172282
3.8190,250.162392,250.157987
3.8200,250.157298,250.185605
3.8210,250.152172,250.169309
3.8220,250.147030,250.153382
3.8230,250.141885,250.160535
3.8240,250.136748,250.144304
3.8250,250.131632,250.139798
3.8260,250.126550,250.118423
3.8270,250.121512,250.118517
3.8280,250.116529,250.153010
3.8290,250.111610,250.094634
3.8300,250.106766,250.093051
3.8310,250.102004,250.091749
3.8320,250.097333,250.083094
3.8330,250.092760,250.081621
3.8340,250.088291,250.062064
3.8350,250.083933,250.070616
3.8360,250.079690,250.077589
3.8370,250.075567,250.077579
3.8380,250.071567,250.054084
3.8390,250.067695,250.067832
3.8400,250.063952,250.042648
3.8410,250.060341,250.050323
3.8420,250.056863,250.044501
3.8430,250.053518,250.061592
3.8440,250.050307,250.048428
3.8450,250.047229,250.036188
3.8460,250.044285,250.049457
3.8470,250.041472,250.024209
3.8480,250.038789,250.063799
3.8490,250.036235,250.028489
3.8500,250.033806,250.044235
3.8510,250.031501,250.014800
3.8520,250.029316,249.997588
3.8530,250.027249,250.027513
3.8540,250.025296,250.006961
3.8550,250.023453,250.031284
3.8560,250.021718,249.995005
3.8570,250.020086,249.995945
3.8580,250.018553,250.019673
3.8590,250.017116,250.022775
3.8600,250.015770,250.013474
3.8610,250.014513,250.064863
3.8620,250.013338,250.013886
3.8630,250.012244,250.001472
3.8640,250.011225,250.006705
3.8650,250.010278,250.017432
3.8660,250.009399,250.042648
3.8670,250.008585,250.013958
3.8680,250.007831,250.035925
3.8690,250.007135,250.013768
3.8700,250.006492,250.017890
3.8710,250.005900,250.001884
3.8720,250.005356,249.996734
3.8730,250.004855,249.998270
3.8740,250.000000,249.971325
3.8750,250.000000,249.970680
3.8760,250.000000,249.985016
3.8770,250.000000,250.011135
3.8780,250.000000,249.962420
3.8790,250.000000,249.959528
3.8800,250.000000,249.990927
3.8810,250.000000,250.015263
3.8820,250.000000,250.005004
3.8830,250.000000,249.990206
3.8840,250.000000,250.011178
3.8850,250.000000,249.984753
3.8860,250.000000,250.019371
3.8870,250.000000,250.003001
3.8880,250.000000,250.002840
3.8890,250.000000,250.005990
3.8900,250.000000,249.997696
3.8910,250.000000,249.981519
3.8920,250.000000,250.000654
3.8930,250.000000,249.993537
3.8940,250.000000,249.952668
3.8950,250.000000,249.975017
3.8960,250.000000,249.963021
3.8970,250.000000,249.962449
3.8980,250.000000,249.993008
3.8990,250.000000,249.983124
3.9000,250.000000,249.992187
3.9010,250.000000,249.989199
3.9020,250.000000,250.009229
3.9030,250.000000,250.017362
3.9040,250.000000,250.041985
3.9050,250.000000,250.007470
3.9060,250.000000,249.987647
3.9070,250.000000,249.999513
3.9080,250.000000,250.016208
3.9090,250.000000,249.987423
3.9100,250.000000,249.971807
3.9110,250.000000,249.977788
3.9120,250.000000,249.976575
3.9130,250.000000,249.964766
3.9140,250.000000,249.981965
3.9150,250.000000,249.976705
3.9160,250.000000,249.990489
3.9170,250.000000,249.974198
3.9180,250.000000,249.992767
3.9190,250.000000,249.981442
3.9200,250.000000,249.976796
3.9210,250.000000,249.990508
3.9220,250.000000,249.978809
3.9230,250.000000,250.033416
3.9240,250.000000,250.010972
3.9250,250.000000,249.997656
3.9260,250.000000,250.003108
3.9270,250.000000,249.969712
3.9280,250.000000,250.024414
3.9290,250.000000,250.018455
3.9300,250.000000,249.995045
3.9310,250.000000,249.993248
3.9320,250.000000,249.964949
3.9330,250.000000,249.962469
3.9340,250.000000,249.952630
3.9350,250.000000,249.974858
3.9360,250.000000,249.993941
3.9370,250.000000,249.974518
3.9380,250.000000,249.988990
3.9390,250.000000,250.002885
3.9400,250.000000,249.968753
3.9410,250.000000,250.025710
3.9420,250.000000,250.019814
3.9430,250.000000,250.013670
3.9440,250.000000,250.022063
3.9450,250.000000,250.023519
3.9460,250.000000,250.012526
3.9470,250.000000,250.027256
3.9480,250.000000,249.995469
3.9490,250.000000,250.004693
3.9500,250.000000,250.012613
3.9510,250.000000,249.947443
3.9520,250.000000,249.989887
3.9530,250.000000,249.990614
3.9540,250.000000,249.951812
3.9550,250.000000,249.980849
3.9560,250.000000,249.965466
3.9570,250.000000,249.985562
3.9580,250.000000,249.981691
3.9590,250.000000,249.973348
3.9600,250.000000,250.009098
3.9610,250.000000,249.991088
3.9620,250.000000,250.005839
3.9630,250.000000,250.025006
3.9640,250.000000,249.993783
3.9650,250.000000,250.008403
3.9660,250.000000,250.000034
3.9670,250.000000,250.001074
3.9680,250.000000,250.033924
3.9690,250.000000,250.003939
3.9700,250.000000,249.996812
3.9710,250.000000,249.994991
3.9720,250.000000,249.989088
3.9730,250.000000,249.951672
3.9740,250.000000,250.011203
3.9750,250.000000,249.953967
3.9760,250.000000,250.002669
3.9770,250.000000,249.988188
3.9780,250.000000,249.985133
3.9790,250.000000,249.982264
3.9800,250.000000,250.030832
3.9810,250.000000,250.005731
3.9820,250.000000,250.001353
3.9830,250.000000,249.996562
3.9840,250.000000,249.997000
3.9850,250.000000,250.008334
3.9860,250.000000,249.992796
3.9870,250.000000,250.014641
3.9880,250.000000,249.991185
3.9890,250.000000,250.011447
3.9900,250.000000,250.006131
3.9910,250.000000,249.985579
3.9920,250.000000,249.990618
3.9930,250.000000,249.987792
3.9940,250.000000,249.954092
3.9950,250.000000,250.001182
3.9960,250.000000,249.972116
3.9970,250.001465,249.990087
3.9980,250.001785,249.994330
3.9990,250.002164,249.950934
4.0000,250.002610,249.983776
4.0010,250.003133,250.011665
4.0020,250.003742,250.005024
4.0030,250.004446,250.018631
4.0040,250.005257,250.012727
4.0050,250.006184,250.031455
4.0060,250.007239,250.014958
4.0070,250.008432,250.033491
4.0080,250.009772,249.995191
4.0090,250.011269,250.004975
4.0100,250.012930,249.994666
4.0110,250.014762,250.006246
4.0120,250.016769,249.993745
4.0130,250.018954,249.993089
4.0140,250.021317,249.986012
4.0150,250.023856,249.991388
4.0160,250.026563,250.001596
4.0170,250.029430,249.976531
4.0180,250.032444,249.978839
4.0190,250.035589,250.021818
4.0200,250.038843,249.987552
4.0210,250.042183,250.034438
4.0220,250.045583,250.039497
4.0230,250.049010,250.060213
4.0240,250.052433,250.047657
4.0250,250.055814,250.085405
4.0260,250.059117,250.077064
4.0270,250.062304,250.042531
4.0280,250.065335,250.060401
4.0290,250.068172,250.085910
4.0300,250.070776,250.050158
4.0310,250.073114,250.057183
4.0320,250.075153,250.076576
4.0330,250.076863,250.045534
4.0340,250.078220,250.069531
4.0350,250.079204,250.039197
4.0360,250.079800,250.010871
4.0370,250.080000,250.075044
4.0380,250.079800,250.066496
4.0390,250.079204,250.071306
4.0400,250.078220,250.051262
4.0410,250.076863,250.056002
4.0420,250.075153,250.091168
4.0430,250.073114,250.079019
4.0440,250.070776,250.073501
4.0450,250.068172,250.076713
4.0460,250.065335,250.092365
4.0470,250.062304,250.075248
4.0480,250.059117,250.050504
4.0490,250.055814,250.028766
4.0500,250.052433,250.050271
4.0510,250.049010,250.019181
4.0520,250.045583,250.007375
4.0530,250.042183,250.037865
4.0540,250.038843,250.025559
4.0550,250.035589,250.014178
4.0560,250.032444,249.987413
4.0570,250.029430,250.032043
4.0580,250.026563,250.021267
4.0590,250.023856,250.002987
4.0600,250.021317,250.002177
4.0610,250.018954,250.013621
4.0620,250.016769,250.007499
4.0630,250.014762,250.049342
4.0640,250.012930,250.010778
4.0650,250.011269,249.999621
4.0660,250.009772,250.037142
4.0670,250.008432,250.001123
4.0680,250.007239,250.016679
4.0690,250.006184,250.009454
4.0700,250.005257,249.992529
4.0710,250.004446,249.973013
4.0720,250.003742,249.981676
4.0730,250.003133,249.960658
4.0740,250.002610,249.975010
4.0750,250.002164,249.985684
4.0760,250.001785,250.000218
4.0770,250.000000,249.958576
4.0780,250.000000,249.974632
4.0790,250.000000,249.974932
4.0800,250.000000,249.991809
4.0810,250.000000,249.969775
4.0820,250.000000,249.983087
4.0830,250.000000,249.975131
4.0840,250.000000,249.981164
4.0850,250.000000,249.993569
4.0860,250.000000,250.027710
4.0870,250.000000,250.005542
4.0880,250.000000,249.997718
4.0890,250.000000,250.012440
4.0900,250.000000,249.993000
4.0910,250.000000,249.989419
4.0920,250.000000,249.970654
4.0930,250.000000,249.964603
4.0940,250.000000,249.952177
4.0950,250.000000,249.961998
4.0960,250.000000,249.967543
4.0970,250.000000,249.979147
4.0980,249.983367,249.960285
4.0990,249.967461,249.943867
4.1000,249.952977,249.926082
4.1010,249.940548,249.938212
4.1020,249.930718,249.919341
4.1030,249.923915,249.928805
4.1040,249.920438,249.893547
4.1050,249.935091,249.942680
4.1060,249.951673,249.964589
4.1070,249.980459,249.989144
4.1080,250.024868,250.017721
4.1090,250.088188,250.093214
4.1100,250.172562,250.139771
4.1110,250.277671,250.257644
4.1120,250.399481,250.373384
4.1130,250.512944,250.501705
4.1140,250.623041,250.563627
4.1150,250.715871,250.670062
4.1160,250.778084,250.775089
4.1170,250.800000,250.736562
4.1180,250.778084,250.766812
4.1190,250.715871,250.686290
4.1200,250.623041,250.612680
4.1210,250.512944,250.524865
4.1220,250.399481,250.399005
4.1230,250.294304,250.314437
4.1240,250.205101,250.198554
4.1250,250.135211,250.131381
4.1260,250.084319,250.096862
4.1270,250.049741,250.041568
4.1280,250.027757,250.031546
4.1290,250.000000,250.008075
4.1300,250.000000,249.998349
4.1310,250.000000,249.956646
4.1320,250.000000,249.970699
4.1330,250.000000,249.976457
4.1340,250.000000,249.966248
4.1350,250.000000,249.970264
