time_s,ppg_clean_ua,ppg_with_ambient_ua,ambient_ua,photodiode_total_ua
0.0000,5.000000,5.499951,0.500000,5.499951
0.0010,5.000000,5.529392,0.529389,5.529392
0.0020,5.000000,5.547594,0.547553,5.547594
0.0030,5.000000,5.547488,0.547553,5.547488
0.0040,5.000000,5.529356,0.529389,5.529356
0.0050,5.000000,5.500000,0.500000,5.500000
0.0060,5.000000,5.470589,0.470611,5.470589
0.0070,5.006218,5.458639,0.452447,5.458639
0.0080,5.006571,5.459025,0.452447,5.459025
0.0090,5.006941,5.477595,0.470611,5.477595
0.0100,5.007327,5.507333,0.500000,5.507333
0.0110,5.007730,5.537060,0.529389,5.537060
0.0120,5.008152,5.555707,0.547553,5.555707
0.0130,5.008591,5.556073,0.547553,5.556073
0.0140,5.009049,5.538434,0.529389,5.538434
0.0150,5.009526,5.509493,0.500000,5.509493
0.0160,5.010023,5.480631,0.470611,5.480631
0.0170,5.010540,5.462958,0.452447,5.462958
0.0180,5.011077,5.463536,0.452447,5.463536
0.0190,5.011635,5.482253,0.470611,5.482253
0.0200,5.012215,5.512248,0.500000,5.512248
0.0210,5.012816,5.542216,0.529389,5.542216
0.0220,5.013440,5.561042,0.547553,5.561042
0.0230,5.014086,5.561598,0.547553,5.561598
0.0240,5.014754,5.544089,0.529389,5.544089
0.0250,5.015446,5.515515,0.500000,5.515515
0.0260,5.016162,5.486783,0.470611,5.486783
0.0270,5.016901,5.469348,0.452447,5.469348
0.0280,5.017664,5.470075,0.452447,5.470075
0.0290,5.018452,5.489106,0.470611,5.489106
0.0300,5.019263,5.519256,0.500000,5.519256
0.0310,5.020100,5.549543,0.529389,5.549543
0.0320,5.020961,5.568579,0.547553,5.568579
0.0330,5.021847,5.569390,0.547553,5.569390
0.0340,5.022757,5.552153,0.529389,5.552153
0.0350,5.023692,5.523683,0.500000,5.523683
0.0360,5.024652,5.495209,0.470611,5.495209
0.0370,5.025637,5.478139,0.452447,5.478139
0.0380,5.026646,5.479096,0.452447,5.479096
0.0390,5.027680,5.498368,0.470611,5.498368
0.0400,5.028738,5.528708,0.500000,5.528708
0.0410,5.029819,5.559235,0.529389,5.559235
0.0420,5.030924,5.578475,0.547553,5.578475
0.0430,5.032053,5.579611,0.547553,5.579611
0.0440,5.033203,5.562618,0.529389,5.562618
0.0450,5.034377,5.534407,0.500000,5.534407
0.0460,5.035571,5.506145,0.470611,5.506145
0.0470,5.036787,5.489255,0.452447,5.489255
0.0480,5.038024,5.490419,0.452447,5.490419
0.0490,5.039280,5.509847,0.470611,5.509847
0.0500,5.040555,5.540530,0.500000,5.540530
0.0510,5.041848,5.571219,0.529389,5.571219
0.0520,5.043158,5.590691,0.547553,5.590691
0.0530,5.044485,5.592015,0.547553,5.592015
0.0540,5.045827,5.575216,0.529389,5.575216
0.0550,5.047183,5.547203,0.500000,5.547203
0.0560,5.048553,5.519148,0.470611,5.519148
0.0570,5.049934,5.502418,0.452447,5.502418
0.0580,5.051327,5.503786,0.452447,5.503786
0.0590,5.052728,5.523386,0.470611,5.523386
0.0600,5.054138,5.554171,0.500000,5.554171
0.0610,5.055555,5.584868,0.529389,5.584868
0.0620,5.056977,5.604606,0.547553,5.604606
0.0630,5.058404,5.606005,0.547553,5.606005
0.0640,5.059832,5.589208,0.529389,5.589208
0.0650,5.061262,5.561221,0.500000,5.561221
0.0660,5.062690,5.533379,0.470611,5.533379
0.0670,5.064117,5.516617,0.452447,5.516617
0.0680,5.065540,5.518005,0.452447,5.518005
0.0690,5.066956,5.537517,0.470611,5.537517
0.0700,5.068366,5.568412,0.500000,5.568412
0.0710,5.069767,5.599174,0.529389,5.599174
0.0720,5.071156,5.618790,0.547553,5.618790
0.0730,5.072533,5.620064,0.547553,5.620064
0.0740,5.073896,5.603266,0.529389,5.603266
0.0750,5.075242,5.575256,0.500000,5.575256
0.0760,5.076570,5.547136,0.470611,5.547136
0.0770,5.077879,5.530322,0.452447,5.530322
0.0780,5.079166,5.531602,0.452447,5.531602
0.0790,5.080429,5.551027,0.470611,5.551027
0.0800,5.081667,5.581696,0.500000,5.581696
0.0810,5.082879,5.612227,0.529389,5.612227
0.0820,5.084061,5.631573,0.547553,5.631573
0.0830,5.085213,5.632756,0.547553,5.632756
0.0840,5.086333,5.615693,0.529389,5.615693
0.0850,5.087419,5.587494,0.500000,5.587494
0.0860,5.088469,5.559126,0.470611,5.559126
0.0870,5.089483,5.541988,0.452447,5.541988
0.0880,5.090457,5.542921,0.452447,5.542921
0.0890,5.091392,5.561963,0.470611,5.561963
0.0900,5.092285,5.592309,0.500000,5.592309
0.0910,5.093135,5.622509,0.529389,5.622509
0.0920,5.093940,5.641490,0.547553,5.641490
0.0930,5.094700,5.642287,0.547553,5.642287
0.0940,5.095413,5.624839,0.529389,5.624839
0.0950,5.096078,5.596104,0.500000,5.596104
0.0960,5.096694,5.567284,0.470611,5.567284
0.0970,5.097260,5.549723,0.452447,5.549723
0.0980,5.097774,5.550201,0.452447,5.550201
0.0990,5.098237,5.568830,0.470611,5.568830
0.1000,5.098647,5.598676,0.500000,5.598676
0.1010,5.099004,5.628387,0.529389,5.628387
0.1020,5.099307,5.646980,0.547553,5.646980
0.1030,5.099556,5.647061,0.547553,5.647061
0.1040,5.099750,5.629118,0.529389,5.629118
0.1050,5.099889,5.599908,0.500000,5.599908
0.1060,5.099972,5.570569,0.470611,5.570569
0.1070,5.100000,5.552398,0.452447,5.552398
0.1080,5.099972,5.552431,0.452447,5.552431
0.1090,5.099889,5.570473,0.470611,5.570473
0.1100,5.099751,5.599757,0.500000,5.599757
0.1110,5.099557,5.628960,0.529389,5.628960
0.1120,5.099309,5.646874,0.547553,5.646874
0.1130,5.099006,5.646616,0.547553,5.646616
0.1140,5.098649,5.628019,0.529389,5.628019
0.1150,5.098239,5.598158,0.500000,5.598158
0.1160,5.097777,5.568450,0.470611,5.568450
0.1170,5.097262,5.549738,0.452447,5.549738
0.1180,5.096697,5.549185,0.452447,5.549185
0.1190,5.096082,5.566684,0.470611,5.566684
0.1200,5.095417,5.595400,0.500000,5.595400
0.1210,5.094704,5.624114,0.529389,5.624114
0.1220,5.093945,5.641509,0.547553,5.641509
0.1230,5.093140,5.640691,0.547553,5.640691
0.1240,5.092291,5.621706,0.529389,5.621706
0.1250,5.091398,5.591406,0.500000,5.591406
0.1260,5.090464,5.561097,0.470611,5.561097
0.1270,5.089490,5.541903,0.452447,5.541903
0.1280,5.088477,5.540953,0.452447,5.540953
0.1290,5.087428,5.558013,0.470611,5.558013
0.1300,5.086342,5.586449,0.500000,5.586449
0.1310,5.085223,5.614622,0.529389,5.614622
0.1320,5.084072,5.631625,0.547553,5.631625
0.1330,5.082890,5.630451,0.547553,5.630451
0.1340,5.081680,5.611122,0.529389,5.611122
0.1350,5.080443,5.580397,0.500000,5.580397
0.1360,5.079180,5.549818,0.470611,5.549818
0.1370,5.077894,5.530286,0.452447,5.530286
0.1380,5.076587,5.529049,0.452447,5.529049
0.1390,5.075260,5.545857,0.470611,5.545857
0.1400,5.073915,5.573912,0.500000,5.573912
0.1410,5.072553,5.601994,0.529389,5.601994
0.1420,5.071178,5.618755,0.547553,5.618755
0.1430,5.069790,5.617408,0.547553,5.617408
0.1440,5.068391,5.597819,0.529389,5.597819
0.1450,5.066983,5.566977,0.500000,5.566977
0.1460,5.065568,5.536162,0.470611,5.536162
0.1470,5.064147,5.516531,0.452447,5.516531
0.1480,5.062723,5.515170,0.452447,5.515170
0.1490,5.061296,5.531960,0.470611,5.531960
0.1500,5.059869,5.559810,0.500000,5.559810
0.1510,5.058443,5.587827,0.529389,5.587827
0.1520,5.057020,5.604562,0.547553,5.604562
0.1530,5.055600,5.603230,0.547553,5.603230
0.1540,5.054186,5.583592,0.529389,5.583592
0.1550,5.052779,5.552751,0.500000,5.552751
0.1560,5.051381,5.521982,0.470611,5.521982
0.1570,5.049992,5.502416,0.452447,5.502416
0.1580,5.048614,5.501036,0.452447,5.501036
0.1590,5.047249,5.517881,0.470611,5.517881
0.1600,5.045897,5.545912,0.500000,5.545912
0.1610,5.044559,5.574016,0.529389,5.574016
0.1620,5.043237,5.590756,0.547553,5.590756
0.1630,5.041932,5.589535,0.547553,5.589535
0.1640,5.040644,5.570040,0.529389,5.570040
0.1650,5.039374,5.539463,0.500000,5.539463
0.1660,5.038124,5.508692,0.470611,5.508692
0.1670,5.036894,5.489345,0.452447,5.489345
0.1680,5.035684,5.488164,0.452447,5.488164
0.1690,5.034496,5.505057,0.470611,5.505057
0.1700,5.033331,5.533254,0.500000,5.533254
0.1710,5.032187,5.561588,0.529389,5.561588
0.1720,5.031067,5.578615,0.547553,5.578615
0.1730,5.029970,5.577501,0.547553,5.577501
0.1740,5.028898,5.558235,0.529389,5.558235
0.1750,5.027850,5.527924,0.500000,5.527924
0.1760,5.026826,5.497427,0.470611,5.497427
0.1770,5.025827,5.478200,0.452447,5.478200
0.1780,5.024853,5.477197,0.452447,5.477197
0.1790,5.023905,5.494506,0.470611,5.494506
0.1800,5.022982,5.523007,0.500000,5.523007
0.1810,5.022084,5.551455,0.529389,5.551455
0.1820,5.021211,5.568816,0.547553,5.568816
0.1830,5.020364,5.567907,0.547553,5.567907
0.1840,5.019543,5.548875,0.529389,5.548875
0.1850,5.018746,5.518775,0.500000,5.518775
0.1860,5.017975,5.488607,0.470611,5.488607
0.1870,5.017229,5.469662,0.452447,5.469662
0.1880,5.016508,5.468953,0.452447,5.468953
0.1890,5.015811,5.486474,0.470611,5.486474
0.1900,5.015139,5.515145,0.500000,5.515145
0.1910,5.014490,5.543882,0.529389,5.543882
0.1920,5.013866,5.561455,0.547553,5.561455
0.1930,5.013265,5.560807,0.547553,5.560807
0.1940,5.012687,5.542002,0.529389,5.542002
0.1950,5.012132,5.512135,0.500000,5.512135
0.1960,5.011600,5.482261,0.470611,5.482261
0.1970,5.011089,5.463528,0.452447,5.463528
0.1980,5.010600,5.463066,0.452447,5.463066
0.1990,5.010133,5.480701,0.470611,5.480701
0.2000,5.009686,5.509711,0.500000,5.509711
0.2010,5.009260,5.538576,0.529389,5.538576
0.2020,5.008854,5.556350,0.547553,5.556350
0.2030,5.008468,5.555995,0.547553,5.555995
0.2040,5.008101,5.537523,0.529389,5.537523
0.2050,5.007752,5.507761,0.500000,5.507761
0.2060,5.007422,5.478054,0.470611,5.478054
0.2070,5.007109,5.459512,0.452447,5.459512
0.2080,5.006814,5.459147,0.452447,5.459147
0.2090,5.006536,5.477103,0.470611,5.477103
0.2100,5.006275,5.506282,0.500000,5.506282
0.2110,5.006030,5.535370,0.529389,5.535370
0.2120,5.005800,5.553349,0.547553,5.553349
0.2130,5.005586,5.553093,0.547553,5.553093
0.2140,5.005386,5.534837,0.529389,5.534837
0.2150,5.005201,5.505250,0.500000,5.505250
0.2160,5.005030,5.475596,0.470611,5.475596
0.2170,5.004873,5.457299,0.452447,5.457299
0.2180,5.004729,5.457240,0.452447,5.457240
0.2190,5.004597,5.475256,0.470611,5.475256
0.2200,5.004479,5.504490,0.500000,5.504490
0.2210,5.004372,5.533773,0.529389,5.533773
0.2220,5.004278,5.551816,0.547553,5.551816
0.2230,5.004195,5.551824,0.547553,5.551824
0.2240,5.004123,5.533542,0.529389,5.533542
0.2250,5.004062,5.504081,0.500000,5.504081
0.2260,5.004011,5.474604,0.470611,5.474604
0.2270,5.003971,5.456463,0.452447,5.456463
0.2280,5.003941,5.456335,0.452447,5.456335
0.2290,5.003920,5.474529,0.470611,5.474529
0.2300,5.003909,5.503918,0.500000,5.503918
0.2310,5.003907,5.533249,0.529389,5.533249
0.2320,5.003914,5.551460,0.547553,5.551460
0.2330,5.003930,5.551480,0.547553,5.551480
0.2340,5.003955,5.533257,0.529389,5.533257
0.2350,5.003987,5.504017,0.500000,5.504017
0.2360,5.004028,5.474643,0.470611,5.474643
0.2370,5.004077,5.456572,0.452447,5.456572
0.2380,5.004133,5.456462,0.452447,5.456462
0.2390,5.004197,5.474821,0.470611,5.474821
0.2400,5.004268,5.504232,0.500000,5.504232
0.2410,5.004347,5.533752,0.529389,5.533752
0.2420,5.004432,5.551916,0.547553,5.551916
0.2430,5.004525,5.552109,0.547553,5.552109
0.2440,5.004624,5.534012,0.529389,5.534012
0.2450,5.004730,5.504745,0.500000,5.504745
0.2460,5.004842,5.475417,0.470611,5.475417
0.2470,5.004961,5.457354,0.452447,5.457354
0.2480,5.005086,5.457515,0.452447,5.457515
0.2490,5.005218,5.475794,0.470611,5.475794
0.2500,5.005355,5.505323,0.500000,5.505323
0.2510,5.005499,5.534954,0.529389,5.534954
0.2520,5.005648,5.553223,0.547553,5.553223
0.2530,5.005804,5.553331,0.547553,5.553331
0.2540,5.005965,5.535327,0.529389,5.535327
0.2550,5.006131,5.506116,0.500000,5.506116
0.2560,5.006304,5.476936,0.470611,5.476936
0.2570,5.006481,5.458919,0.452447,5.458919
0.2580,5.006664,5.459066,0.452447,5.459066
0.2590,5.006853,5.477371,0.470611,5.477371
0.2600,5.007047,5.507035,0.500000,5.507035
0.2610,5.007245,5.536643,0.529389,5.536643
0.2620,5.007449,5.555030,0.547553,5.555030
0.2630,5.007658,5.555186,0.547553,5.555186
0.2640,5.007872,5.537299,0.529389,5.537299
0.2650,5.008091,5.508075,0.500000,5.508075
0.2660,5.008315,5.478965,0.470611,5.478965
0.2670,5.008543,5.461055,0.452447,5.461055
0.2680,5.008776,5.461262,0.452447,5.461262
0.2690,5.009014,5.479629,0.470611,5.479629
0.2700,5.009256,5.509342,0.500000,5.509342
0.2710,5.009503,5.538862,0.529389,5.538862
0.2720,5.009753,5.557277,0.547553,5.557277
0.2730,5.010008,5.557550,0.547553,5.557550
0.2740,5.010268,5.539575,0.529389,5.539575
0.2750,5.010531,5.510541,0.500000,5.510541
0.2760,5.010798,5.481432,0.470611,5.481432
0.2770,5.011069,5.463521,0.452447,5.463521
0.2780,5.011343,5.463743,0.452447,5.463743
0.2790,5.011622,5.482243,0.470611,5.482243
0.2800,5.011904,5.511890,0.500000,5.511890
0.2810,5.012189,5.541524,0.529389,5.541524
0.2820,5.012477,5.560021,0.547553,5.560021
0.2830,5.012769,5.560316,0.547553,5.560316
0.2840,5.013063,5.542518,0.529389,5.542518
0.2850,5.013361,5.513345,0.500000,5.513345
0.2860,5.013661,5.484259,0.470611,5.484259
0.2870,5.013963,5.466362,0.452447,5.466362
0.2880,5.014269,5.466692,0.452447,5.466692
0.2890,5.014576,5.485185,0.470611,5.485185
0.2900,5.014885,5.514936,0.500000,5.514936
0.2910,5.015197,5.544600,0.529389,5.544600
0.2920,5.015510,5.563088,0.547553,5.563088
0.2930,5.015825,5.563395,0.547553,5.563395
0.2940,5.016142,5.545656,0.529389,5.545656
0.2950,5.016459,5.516437,0.500000,5.516437
0.2960,5.016778,5.487443,0.470611,5.487443
0.2970,5.017098,5.469545,0.452447,5.469545
0.2980,5.017418,5.469828,0.452447,5.469828
0.2990,5.017739,5.488340,0.470611,5.488340
0.3000,5.018060,5.518067,0.500000,5.518067
0.3010,5.018381,5.547786,0.529389,5.547786
0.3020,5.018703,5.566271,0.547553,5.566271
0.3030,5.019024,5.566539,0.547553,5.566539
0.3040,5.019344,5.548687,0.529389,5.548687
0.3050,5.019664,5.519655,0.500000,5.519655
0.3060,5.019983,5.490622,0.470611,5.490622
0.3070,5.020300,5.472739,0.452447,5.472739
0.3080,5.020616,5.473019,0.452447,5.473019
0.3090,5.020931,5.491579,0.470611,5.491579
0.3100,5.021244,5.521273,0.500000,5.521273
0.3110,5.021555,5.550937,0.529389,5.550937
0.3120,5.021863,5.569385,0.547553,5.569385
0.3130,5.022169,5.569718,0.547553,5.569718
0.3140,5.022473,5.551900,0.529389,5.551900
0.3150,5.022773,5.522780,0.500000,5.522780
0.3160,5.023070,5.493709,0.470611,5.493709
0.3170,5.023364,5.475871,0.452447,5.475871
0.3180,5.023654,5.476115,0.452447,5.476115
0.3190,5.023940,5.494572,0.470611,5.494572
0.3200,5.024223,5.524302,0.500000,5.524302
0.3210,5.024500,5.553921,0.529389,5.553921
0.3220,5.024774,5.572347,0.547553,5.572347
0.3230,5.025042,5.572666,0.547553,5.572666
0.3240,5.025306,5.554703,0.529389,5.554703
0.3250,5.025564,5.525523,0.500000,5.525523
0.3260,5.025817,5.496452,0.470611,5.496452
0.3270,5.026064,5.478491,0.452447,5.478491
0.3280,5.026306,5.478743,0.452447,5.478743
0.3290,5.026541,5.497149,0.470611,5.497149
0.3300,5.026770,5.526847,0.500000,5.526847
0.3310,5.026992,5.556324,0.529389,5.556324
0.3320,5.027208,5.574730,0.547553,5.574730
0.3330,5.027418,5.575103,0.547553,5.575103
0.3340,5.027620,5.556945,0.529389,5.556945
0.3350,5.027814,5.527866,0.500000,5.527866
0.3360,5.028002,5.498606,0.470611,5.498606
0.3370,5.028182,5.480640,0.452447,5.480640
0.3380,5.028354,5.480715,0.452447,5.480715
0.3390,5.028519,5.499168,0.470611,5.499168
0.3400,5.028675,5.528756,0.500000,5.528756
0.3410,5.028823,5.558277,0.529389,5.558277
0.3420,5.028963,5.576461,0.547553,5.576461
0.3430,5.029095,5.576654,0.547553,5.576654
0.3440,5.029218,5.558698,0.529389,5.558698
0.3450,5.029332,5.529370,0.500000,5.529370
0.3460,5.029438,5.500077,0.470611,5.500077
0.3470,5.029534,5.481969,0.452447,5.481969
0.3480,5.029622,5.482031,0.452447,5.482031
0.3490,5.029701,5.500294,0.470611,5.500294
0.3500,5.029771,5.529748,0.500000,5.529748
0.3510,5.029831,5.559254,0.529389,5.559254
0.3520,5.029883,5.577441,0.547553,5.577441
0.3530,5.029925,5.577497,0.547553,5.577497
0.3540,5.029957,5.559286,0.529389,5.559286
0.3550,5.029981,5.530012,0.500000,5.530012
0.3560,5.029995,5.500626,0.470611,5.500626
0.3570,5.029999,5.482402,0.452447,5.482402
0.3580,5.029995,5.482446,0.452447,5.482446
0.3590,5.029981,5.500481,0.470611,5.500481
0.3600,5.029957,5.529949,0.500000,5.529949
0.3610,5.029925,5.559369,0.529389,5.559369
0.3620,5.029883,5.577388,0.547553,5.577388
0.3630,5.029831,5.577413,0.547553,5.577413
0.3640,5.029771,5.559107,0.529389,5.559107
0.3650,5.029701,5.529667,0.500000,5.529667
0.3660,5.029622,5.500220,0.470611,5.500220
0.3670,5.029534,5.482018,0.452447,5.482018
0.3680,5.029438,5.481878,0.452447,5.481878
0.3690,5.029332,5.499938,0.470611,5.499938
0.3700,5.029218,5.529222,0.500000,5.529222
0.3710,5.029095,5.558458,0.529389,5.558458
0.3720,5.028963,5.576513,0.547553,5.576513
0.3730,5.028823,5.576289,0.547553,5.576289
0.3740,5.028675,5.558024,0.529389,5.558024
0.3750,5.028519,5.528554,0.500000,5.528554
0.3760,5.028354,5.498964,0.470611,5.498964
0.3770,5.028182,5.480664,0.452447,5.480664
0.3780,5.028002,5.480424,0.452447,5.480424
0.3790,5.027814,5.498424,0.470611,5.498424
0.3800,5.027620,5.527663,0.500000,5.527663
0.3810,5.027417,5.556818,0.529389,5.556818
0.3820,5.027208,5.574684,0.547553,5.574684
0.3830,5.026992,5.574598,0.547553,5.574598
0.3840,5.026770,5.556209,0.529389,5.556209
0.3850,5.026541,5.526556,0.500000,5.526556
0.3860,5.026305,5.496926,0.470611,5.496926
0.3870,5.026064,5.478511,0.452447,5.478511
0.3880,5.025817,5.478187,0.452447,5.478187
0.3890,5.025564,5.496188,0.470611,5.496188
0.3900,5.025306,5.525227,0.500000,5.525227
0.3910,5.025042,5.554452,0.529389,5.554452
0.3920,5.024773,5.572283,0.547553,5.572283
0.3930,5.024500,5.572063,0.547553,5.572063
0.3940,5.024222,5.553566,0.529389,5.553566
0.3950,5.023940,5.524027,0.500000,5.524027
0.3960,5.023654,5.494263,0.470611,5.494263
0.3970,5.023364,5.475844,0.452447,5.475844
0.3980,5.023070,5.475609,0.452447,5.475609
0.3990,5.022773,5.493416,0.470611,5.493416
0.4000,5.022472,5.522449,0.500000,5.522449
0.4010,5.022169,5.551492,0.529389,5.551492
0.4020,5.021863,5.569410,0.547553,5.569410
0.4030,5.021554,5.569125,0.547553,5.569125
0.4040,5.021243,5.550539,0.529389,5.550539
0.4050,5.020930,5.520995,0.500000,5.520995
0.4060,5.020615,5.491160,0.470611,5.491160
0.4070,5.020299,5.472774,0.452447,5.472774
0.4080,5.019981,5.472365,0.452447,5.472365
0.4090,5.019662,5.490274,0.470611,5.490274
0.4100,5.019342,5.519307,0.500000,5.519307
0.4110,5.019021,5.548370,0.529389,5.548370
0.4120,5.018700,5.566223,0.547553,5.566223
0.4130,5.018378,5.565856,0.547553,5.565856
0.4140,5.018057,5.547463,0.529389,5.547463
0.4150,5.017735,5.517722,0.500000,5.517722
0.4160,5.017414,5.488022,0.470611,5.488022
0.4170,5.017093,5.469538,0.452447,5.469538
0.4180,5.016773,5.469298,0.452447,5.469298
0.4190,5.016454,5.486965,0.470611,5.486965
0.4200,5.016136,5.516155,0.500000,5.516155
0.4210,5.015819,5.545178,0.529389,5.545178
0.4220,5.015503,5.563015,0.547553,5.563015
0.4230,5.015189,5.562672,0.547553,5.562672
0.4240,5.014876,5.544335,0.529389,5.544335
0.4250,5.014566,5.514602,0.500000,5.514602
0.4260,5.014257,5.484826,0.470611,5.484826
0.4270,5.013951,5.466460,0.452447,5.466460
0.4280,5.013647,5.466170,0.452447,5.466170
0.4290,5.013346,5.483948,0.470611,5.483948
0.4300,5.013047,5.513036,0.500000,5.513036
0.4310,5.012750,5.542107,0.529389,5.542107
0.4320,5.012457,5.560037,0.547553,5.560037
0.4330,5.012166,5.559676,0.547553,5.559676
0.4340,5.011879,5.541272,0.529389,5.541272
0.4350,5.011595,5.511601,0.500000,5.511601
0.4360,5.011314,5.481984,0.470611,5.481984
0.4370,5.011036,5.463543,0.452447,5.463543
0.4380,5.010762,5.463156,0.452447,5.463156
0.4390,5.010491,5.481148,0.470611,5.481148
0.4400,5.010224,5.510198,0.500000,5.510198
0.4410,5.009961,5.539397,0.529389,5.539397
0.4420,5.009701,5.557246,0.547553,5.557246
0.4430,5.009446,5.556983,0.547553,5.556983
0.4440,5.009194,5.538527,0.529389,5.538527
0.4450,5.008946,5.508964,0.500000,5.508964
0.4460,5.008702,5.479286,0.470611,5.479286
0.4470,5.008462,5.460974,0.452447,5.460974
0.4480,5.008226,5.460702,0.452447,5.460702
0.4490,5.007994,5.478657,0.470611,5.478657
0.4500,5.007766,5.507856,0.500000,5.507856
0.4510,5.007543,5.536899,0.529389,5.536899
0.4520,5.007323,5.554769,0.547553,5.554769
0.4530,5.007108,5.554637,0.547553,5.554637
0.4540,5.006897,5.536284,0.529389,5.536284
0.4550,5.006690,5.506777,0.500000,5.506777
0.4560,5.006487,5.477080,0.470611,5.477080
0.4570,5.006288,5.458773,0.452447,5.458773
0.4580,5.006094,5.458527,0.452447,5.458527
0.4590,5.005904,5.476449,0.470611,5.476449
0.4600,5.005717,5.505706,0.500000,5.505706
0.4610,5.005535,5.534924,0.529389,5.534924
0.4620,5.005358,5.552935,0.547553,5.552935
0.4630,5.005184,5.552747,0.547553,5.552747
0.4640,5.005014,5.534413,0.529389,5.534413
0.4650,5.004849,5.504930,0.500000,5.504930
0.4660,5.004687,5.475252,0.470611,5.475252
0.4670,5.004529,5.457003,0.452447,5.457003
0.4680,5.004376,5.456851,0.452447,5.456851
0.4690,5.004226,5.474876,0.470611,5.474876
0.4700,5.004080,5.504045,0.500000,5.504045
0.4710,5.003938,5.533383,0.529389,5.533383
0.4720,5.003799,5.551307,0.547553,5.551307
0.4730,5.003664,5.551193,0.547553,5.551193
0.4740,5.003533,5.532908,0.529389,5.532908
0.4750,5.003406,5.503441,0.500000,5.503441
0.4760,5.003282,5.473932,0.470611,5.473932
0.4770,5.003162,5.455576,0.452447,5.455576
0.4780,5.003045,5.455529,0.452447,5.455529
0.4790,5.002932,5.473547,0.470611,5.473547
0.4800,5.002822,5.502829,0.500000,5.502829
0.4810,5.002715,5.532101,0.529389,5.532101
0.4820,5.002611,5.550281,0.547553,5.550281
0.4830,5.002511,5.550102,0.547553,5.550102
0.4840,5.002413,5.531848,0.529389,5.531848
0.4850,5.002319,5.502335,0.500000,5.502335
0.4860,5.002228,5.472816,0.470611,5.472816
0.4870,5.002139,5.454600,0.452447,5.454600
0.4880,5.002054,5.454559,0.452447,5.454559
0.4890,5.001971,5.472638,0.470611,5.472638
0.4900,5.001891,5.501924,0.500000,5.501924
0.4910,5.001814,5.531192,0.529389,5.531192
0.4920,5.001739,5.549339,0.547553,5.549339
0.4930,5.001667,5.549198,0.547553,5.549198
0.4940,5.001598,5.530961,0.529389,5.530961
0.4950,5.001530,5.501516,0.500000,5.501516
0.4960,5.001466,5.472028,0.470611,5.472028
0.4970,5.001403,5.453880,0.452447,5.453880
0.4980,5.001343,5.453859,0.452447,5.453859
0.4990,5.001285,5.471886,0.470611,5.471886
0.5000,5.001229,5.501297,0.500000,5.501297
0.5010,5.001175,5.530531,0.529389,5.530531
0.5020,5.001123,5.548666,0.547553,5.548666
0.5030,5.001073,5.548602,0.547553,5.548602
0.5040,5.001025,5.530482,0.529389,5.530482
0.5050,5.000979,5.500967,0.500000,5.500967
0.5060,5.000935,5.471493,0.470611,5.471493
0.5070,5.000892,5.453401,0.452447,5.453401
0.5080,5.000851,5.453277,0.452447,5.453277
0.5090,5.000812,5.471449,0.470611,5.471449
0.5100,5.000774,5.500740,0.500000,5.500740
0.5110,5.000738,5.530179,0.529389,5.530179
0.5120,5.000703,5.548301,0.547553,5.548301
0.5130,5.000669,5.548191,0.547553,5.548191
0.5140,5.000637,5.530089,0.529389,5.530089
0.5150,5.000607,5.500557,0.500000,5.500557
0.5160,5.000578,5.471238,0.470611,5.471238
0.5170,5.000549,5.453041,0.452447,5.453041
0.5180,5.000523,5.453007,0.452447,5.453007
0.5190,5.000497,5.471125,0.470611,5.471125
0.5200,5.000472,5.500443,0.500000,5.500443
0.5210,5.000449,5.529851,0.529389,5.529851
0.5220,5.000426,5.547999,0.547553,5.547999
0.5230,5.000405,5.547888,0.547553,5.547888
0.5240,5.000384,5.529804,0.529389,5.529804
0.5250,5.000365,5.500335,0.500000,5.500335
0.5260,5.000346,5.470896,0.470611,5.470896
0.5270,5.000328,5.452714,0.452447,5.452714
0.5280,5.000311,5.452784,0.452447,5.452784
0.5290,5.000295,5.470865,0.470611,5.470865
0.5300,5.000279,5.500269,0.500000,5.500269
0.5310,5.000265,5.529604,0.529389,5.529604
0.5320,5.000251,5.547862,0.547553,5.547862
0.5330,5.000237,5.547783,0.547553,5.547783
0.5340,5.000224,5.529601,0.529389,5.529601
0.5350,5.000212,5.500212,0.500000,5.500212
0.5360,5.000201,5.470784,0.470611,5.470784
0.5370,5.000190,5.452617,0.452447,5.452617
0.5380,5.000179,5.452644,0.452447,5.452644
0.5390,5.000170,5.470877,0.470611,5.470877
0.5400,5.000160,5.500266,0.500000,5.500266
0.5410,5.000151,5.529594,0.529389,5.529594
0.5420,5.000143,5.547676,0.547553,5.547676
0.5430,5.000135,5.547667,0.547553,5.547667
0.5440,5.000127,5.529494,0.529389,5.529494
0.5450,5.000120,5.500125,0.500000,5.500125
0.5460,5.000113,5.470734,0.470611,5.470734
0.5470,5.000107,5.452551,0.452447,5.452551
0.5480,5.000100,5.452621,0.452447,5.452621
0.5490,5.000095,5.470652,0.470611,5.470652
0.5500,5.000089,5.500109,0.500000,5.500109
0.5510,5.000084,5.529539,0.529389,5.529539
0.5520,5.000079,5.547614,0.547553,5.547614
0.5530,5.000074,5.547636,0.547553,5.547636
0.5540,5.000070,5.529467,0.529389,5.529467
0.5550,5.000066,5.500035,0.500000,5.500035
0.5560,5.000062,5.470675,0.470611,5.470675
0.5570,5.000058,5.452406,0.452447,5.452406
0.5580,5.000054,5.452531,0.452447,5.452531
0.5590,5.000051,5.470625,0.470611,5.470625
0.5600,5.000048,5.500077,0.500000,5.500077
0.5610,5.000045,5.529421,0.529389,5.529421
0.5620,5.000042,5.547586,0.547553,5.547586
0.5630,5.000040,5.547605,0.547553,5.547605
0.5640,5.000037,5.529441,0.529389,5.529441
0.5650,5.000035,5.500057,0.500000,5.500057
0.5660,5.000033,5.470721,0.470611,5.470721
0.5670,5.000031,5.452448,0.452447,5.452448
0.5680,5.000029,5.452573,0.452447,5.452573
0.5690,5.000027,5.470626,0.470611,5.470626
0.5700,5.000025,5.500094,0.500000,5.500094
0.5710,5.000023,5.529515,0.529389,5.529515
0.5720,5.000022,5.547473,0.547553,5.547473
0.5730,5.000020,5.547582,0.547553,5.547582
0.5740,5.000019,5.529408,0.529389,5.529408
0.5750,5.000018,5.499998,0.500000,5.499998
0.5760,5.000017,5.470571,0.470611,5.470571
0.5770,5.000016,5.452448,0.452447,5.452448
0.5780,5.000015,5.452487,0.452447,5.452487
0.5790,5.000014,5.470629,0.470611,5.470629
0.5800,5.000013,5.499941,0.500000,5.499941
0.5810,5.000012,5.529448,0.529389,5.529448
0.5820,5.000011,5.547572,0.547553,5.547572
0.5830,5.000010,5.547664,0.547553,5.547664
0.5840,5.000010,5.529371,0.529389,5.529371
0.5850,5.000009,5.499934,0.500000,5.499934
0.5860,5.000008,5.470573,0.470611,5.470573
0.5870,5.000008,5.452442,0.452447,5.452442
0.5880,5.000007,5.452451,0.452447,5.452451
0.5890,5.000007,5.470622,0.470611,5.470622
0.5900,5.000006,5.500040,0.500000,5.500040
0.5910,5.000006,5.529416,0.529389,5.529416
0.5920,5.000005,5.547570,0.547553,5.547570
0.5930,5.000005,5.547580,0.547553,5.547580
0.5940,5.000005,5.529331,0.529389,5.529331
0.5950,5.000004,5.499938,0.500000,5.499938
0.5960,5.000004,5.470612,0.470611,5.470612
0.5970,5.000004,5.452480,0.452447,5.452480
0.5980,5.000003,5.452392,0.452447,5.452392
0.5990,5.000003,5.470587,0.470611,5.470587
0.6000,5.000003,5.499999,0.500000,5.499999
0.6010,5.000003,5.529469,0.529389,5.529469
0.6020,5.000003,5.547550,0.547553,5.547550
0.6030,5.000002,5.547516,0.547553,5.547516
0.6040,5.000002,5.529340,0.529389,5.529340
0.6050,5.000002,5.499926,0.500000,5.499926
0.6060,5.000002,5.470547,0.470611,5.470547
0.6070,5.000002,5.452501,0.452447,5.452501
0.6080,5.000002,5.452425,0.452447,5.452425
0.6090,5.000001,5.470619,0.470611,5.470619
0.6100,5.000001,5.500076,0.500000,5.500076
0.6110,5.000001,5.529396,0.529389,5.529396
0.6120,5.000001,5.547537,0.547553,5.547537
0.6130,5.000001,5.547571,0.547553,5.547571
0.6140,5.000001,5.529432,0.529389,5.529432
0.6150,5.000001,5.500015,0.500000,5.500015
0.6160,5.000001,5.470650,0.470611,5.470650
0.6170,5.000001,5.452482,0.452447,5.452482
0.6180,5.000001,5.452475,0.452447,5.452475
0.6190,5.000001,5.470622,0.470611,5.470622
0.6200,5.000001,5.499988,0.500000,5.499988
0.6210,5.000001,5.529368,0.529389,5.529368
0.6220,5.000001,5.547560,0.547553,5.547560
0.6230,5.000000,5.547520,0.547553,5.547520
0.6240,5.000000,5.529397,0.529389,5.529397
0.6250,5.000000,5.500036,0.500000,5.500036
0.6260,5.000000,5.470668,0.470611,5.470668
0.6270,5.000000,5.452428,0.452447,5.452428
0.6280,5.000000,5.452450,0.452447,5.452450
0.6290,5.000000,5.470599,0.470611,5.470599
0.6300,5.000000,5.499994,0.500000,5.499994
0.6310,5.000000,5.529439,0.529389,5.529439
0.6320,5.000000,5.547581,0.547553,5.547581
0.6330,5.000000,5.547549,0.547553,5.547549
0.6340,5.000000,5.529408,0.529389,5.529408
0.6350,5.000000,5.499906,0.500000,5.499906
0.6360,5.000000,5.470599,0.470611,5.470599
0.6370,5.000000,5.452484,0.452447,5.452484
0.6380,5.000000,5.452426,0.452447,5.452426
0.6390,5.000000,5.470587,0.470611,5.470587
0.6400,5.000000,5.499948,0.500000,5.499948
0.6410,5.000000,5.529408,0.529389,5.529408
0.6420,5.000000,5.547495,0.547553,5.547495
0.6430,5.000000,5.547527,0.547553,5.547527
0.6440,5.000000,5.529408,0.529389,5.529408
0.6450,5.000000,5.499990,0.500000,5.499990
0.6460,5.000000,5.470645,0.470611,5.470645
0.6470,5.000000,5.452447,0.452447,5.452447
0.6480,5.000000,5.452432,0.452447,5.452432
0.6490,5.000000,5.470688,0.470611,5.470688
0.6500,5.000000,5.499982,0.500000,5.499982
0.6510,5.000000,5.529412,0.529389,5.529412
0.6520,5.000000,5.547509,0.547553,5.547509
0.6530,5.000000,5.547584,0.547553,5.547584
0.6540,5.000000,5.529393,0.529389,5.529393
0.6550,5.000000,5.500008,0.500000,5.500008
0.6560,5.000000,5.470611,0.470611,5.470611
0.6570,5.000000,5.452403,0.452447,5.452403
0.6580,5.000000,5.452348,0.452447,5.452348
0.6590,5.000000,5.470679,0.470611,5.470679
0.6600,5.000000,5.499966,0.500000,5.499966
0.6610,5.000000,5.529330,0.529389,5.529330
0.6620,5.000000,5.547536,0.547553,5.547536
0.6630,5.000000,5.547563,0.547553,5.547563
0.6640,5.000000,5.529417,0.529389,5.529417
0.6650,5.000000,5.499954,0.500000,5.499954
0.6660,5.000000,5.470659,0.470611,5.470659
0.6670,5.000000,5.452466,0.452447,5.452466
0.6680,5.000000,5.452452,0.452447,5.452452
0.6690,5.000000,5.470601,0.470611,5.470601
0.6700,5.000000,5.500000,0.500000,5.500000
0.6710,5.000000,5.529384,0.529389,5.529384
0.6720,5.000000,5.547573,0.547553,5.547573
0.6730,5.000000,5.547564,0.547553,5.547564
0.6740,5.000000,5.529390,0.529389,5.529390
0.6750,5.000000,5.499961,0.500000,5.499961
0.6760,5.000000,5.470615,0.470611,5.470615
0.6770,5.000000,5.452479,0.452447,5.452479
0.6780,5.000000,5.452444,0.452447,5.452444
0.6790,5.000000,5.470634,0.470611,5.470634
0.6800,5.000000,5.500012,0.500000,5.500012
0.6810,5.000000,5.529429,0.529389,5.529429
0.6820,5.000000,5.547559,0.547553,5.547559
0.6830,5.000000,5.547544,0.547553,5.547544
0.6840,5.000000,5.529347,0.529389,5.529347
0.6850,5.000000,5.500007,0.500000,5.500007
0.6860,5.000000,5.470621,0.470611,5.470621
0.6870,5.000000,5.452416,0.452447,5.452416
0.6880,5.000000,5.452400,0.452447,5.452400
0.6890,5.000000,5.470690,0.470611,5.470690
0.6900,5.000000,5.499994,0.500000,5.499994
0.6910,5.000000,5.529412,0.529389,5.529412
0.6920,5.000000,5.547567,0.547553,5.547567
0.6930,5.000000,5.547508,0.547553,5.547508
0.6940,5.000000,5.529367,0.529389,5.529367
0.6950,5.000000,5.499977,0.500000,5.499977
0.6960,5.000000,5.470590,0.470611,5.470590
0.6970,5.000000,5.452364,0.452447,5.452364
0.6980,5.000000,5.452477,0.452447,5.452477
0.6990,5.000000,5.470582,0.470611,5.470582
0.7000,5.000000,5.499965,0.500000,5.499965
0.7010,5.000000,5.529410,0.529389,5.529410
0.7020,5.000000,5.547600,0.547553,5.547600
0.7030,5.000000,5.547609,0.547553,5.547609
0.7040,5.000000,5.529394,0.529389,5.529394
0.7050,5.000000,5.500027,0.500000,5.500027
0.7060,5.000000,5.470644,0.470611,5.470644
0.7070,5.000000,5.452457,0.452447,5.452457
0.7080,5.000000,5.452439,0.452447,5.452439
0.7090,5.000000,5.470626,0.470611,5.470626
0.7100,5.000000,5.499972,0.500000,5.499972
0.7110,5.000000,5.529420,0.529389,5.529420
0.7120,5.000000,5.547544,0.547553,5.547544
0.7130,5.000000,5.547540,0.547553,5.547540
0.7140,5.000000,5.529432,0.529389,5.529432
0.7150,5.000000,5.500003,0.500000,5.500003
0.7160,5.000000,5.470596,0.470611,5.470596
0.7170,5.000000,5.452469,0.452447,5.452469
0.7180,5.000000,5.452426,0.452447,5.452426
0.7190,5.000000,5.470590,0.470611,5.470590
0.7200,5.000000,5.499982,0.500000,5.499982
0.7210,5.000000,5.529425,0.529389,5.529425
0.7220,5.000000,5.547619,0.547553,5.547619
0.7230,5.000000,5.547541,0.547553,5.547541
0.7240,5.000000,5.529488,0.529389,5.529488
0.7250,5.000000,5.500010,0.500000,5.500010
0.7260,5.000000,5.470588,0.470611,5.470588
0.7270,5.000000,5.452464,0.452447,5.452464
0.7280,5.000000,5.452417,0.452447,5.452417
0.7290,5.000000,5.470624,0.470611,5.470624
0.7300,5.000000,5.499963,0.500000,5.499963
0.7310,5.000000,5.529390,0.529389,5.529390
0.7320,5.000000,5.547572,0.547553,5.547572
0.7330,5.000000,5.547516,0.547553,5.547516
0.7340,5.000000,5.529359,0.529389,5.529359
0.7350,5.000000,5.499928,0.500000,5.499928
0.7360,5.000000,5.470565,0.470611,5.470565
0.7370,5.000000,5.452448,0.452447,5.452448
0.7380,5.000000,5.452445,0.452447,5.452445
0.7390,5.000000,5.470579,0.470611,5.470579
0.7400,5.000000,5.500038,0.500000,5.500038
0.7410,5.000000,5.529373,0.529389,5.529373
0.7420,5.000000,5.547507,0.547553,5.547507
0.7430,5.000000,5.547624,0.547553,5.547624
0.7440,5.000000,5.529273,0.529389,5.529273
0.7450,5.000000,5.500007,0.500000,5.500007
0.7460,5.000000,5.470639,0.470611,5.470639
0.7470,5.000000,5.452455,0.452447,5.452455
0.7480,5.000000,5.452417,0.452447,5.452417
0.7490,5.000000,5.470626,0.470611,5.470626
0.7500,5.000000,5.500009,0.500000,5.500009
0.7510,5.000000,5.529395,0.529389,5.529395
0.7520,5.000000,5.547549,0.547553,5.547549
0.7530,5.000000,5.547590,0.547553,5.547590
0.7540,5.000000,5.529368,0.529389,5.529368
0.7550,5.000000,5.499952,0.500000,5.499952
0.7560,5.000000,5.470630,0.470611,5.470630
0.7570,5.000000,5.452432,0.452447,5.452432
0.7580,5.000000,5.452420,0.452447,5.452420
0.7590,5.000000,5.470653,0.470611,5.470653
0.7600,5.000000,5.500007,0.500000,5.500007
0.7610,5.000000,5.529408,0.529389,5.529408
0.7620,5.000000,5.547571,0.547553,5.547571
0.7630,5.000000,5.547557,0.547553,5.547557
0.7640,5.000000,5.529375,0.529389,5.529375
0.7650,5.000000,5.499960,0.500000,5.499960
0.7660,5.000000,5.470592,0.470611,5.470592
0.7670,5.000000,5.452440,0.452447,5.452440
0.7680,5.000000,5.452417,0.452447,5.452417
0.7690,5.000000,5.470682,0.470611,5.470682
0.7700,5.000000,5.499967,0.500000,5.499967
0.7710,5.000000,5.529418,0.529389,5.529418
0.7720,5.000000,5.547601,0.547553,5.547601
0.7730,5.000000,5.547532,0.547553,5.547532
0.7740,5.000000,5.529397,0.529389,5.529397
0.7750,5.000000,5.499936,0.500000,5.499936
0.7760,5.000000,5.470680,0.470611,5.470680
0.7770,5.000000,5.452440,0.452447,5.452440
0.7780,5.000000,5.452529,0.452447,5.452529
0.7790,5.000000,5.470629,0.470611,5.470629
0.7800,5.000000,5.500033,0.500000,5.500033
0.7810,5.000000,5.529383,0.529389,5.529383
0.7820,5.000000,5.547575,0.547553,5.547575
0.7830,5.000000,5.547528,0.547553,5.547528
0.7840,5.000000,5.529409,0.529389,5.529409
0.7850,5.000000,5.500035,0.500000,5.500035
0.7860,5.000000,5.470644,0.470611,5.470644
0.7870,5.000000,5.452436,0.452447,5.452436
0.7880,5.000000,5.452515,0.452447,5.452515
0.7890,5.000000,5.470576,0.470611,5.470576
0.7900,5.000000,5.500058,0.500000,5.500058
0.7910,5.000000,5.529418,0.529389,5.529418
0.7920,5.000000,5.547510,0.547553,5.547510
0.7930,5.000000,5.547596,0.547553,5.547596
0.7940,5.000000,5.529318,0.529389,5.529318
0.7950,5.000000,5.500080,0.500000,5.500080
0.7960,5.000000,5.470608,0.470611,5.470608
0.7970,5.000000,5.452414,0.452447,5.452414
0.7980,5.000000,5.452448,0.452447,5.452448
0.7990,5.000000,5.470607,0.470611,5.470607
0.8000,5.000000,5.500033,0.500000,5.500033
0.8010,5.000000,5.529422,0.529389,5.529422
0.8020,5.000000,5.547591,0.547553,5.547591
0.8030,5.000000,5.547610,0.547553,5.547610
0.8040,5.000000,5.529483,0.529389,5.529483
0.8050,5.000000,5.499988,0.500000,5.499988
0.8060,5.000000,5.470636,0.470611,5.470636
0.8070,5.000000,5.452488,0.452447,5.452488
0.8080,5.000000,5.452483,0.452447,5.452483
0.8090,5.000000,5.470669,0.470611,5.470669
0.8100,5.000000,5.499954,0.500000,5.499954
0.8110,5.000000,5.529409,0.529389,5.529409
0.8120,5.000000,5.547594,0.547553,5.547594
0.8130,5.000000,5.547595,0.547553,5.547595
0.8140,5.000000,5.529396,0.529389,5.529396
0.8150,5.000000,5.500026,0.500000,5.500026
0.8160,5.000000,5.470638,0.470611,5.470638
0.8170,5.000000,5.452401,0.452447,5.452401
0.8180,5.000000,5.452512,0.452447,5.452512
0.8190,5.000000,5.470588,0.470611,5.470588
0.8200,5.000000,5.499962,0.500000,5.499962
0.8210,5.000000,5.529429,0.529389,5.529429
0.8220,5.000000,5.547537,0.547553,5.547537
0.8230,5.000000,5.547521,0.547553,5.547521
0.8240,5.000000,5.529420,0.529389,5.529420
0.8250,5.000000,5.499997,0.500000,5.499997
0.8260,5.000000,5.470653,0.470611,5.470653
0.8270,5.000000,5.452466,0.452447,5.452466
0.8280,5.000000,5.452506,0.452447,5.452506
0.8290,5.000000,5.470578,0.470611,5.470578
0.8300,5.000000,5.500070,0.500000,5.500070
0.8310,5.000000,5.529359,0.529389,5.529359
0.8320,5.000000,5.547526,0.547553,5.547526
0.8330,5.000000,5.547576,0.547553,5.547576
0.8340,5.000000,5.529351,0.529389,5.529351
0.8350,5.000000,5.499990,0.500000,5.499990
0.8360,5.000000,5.470629,0.470611,5.470629
0.8370,5.000000,5.452380,0.452447,5.452380
0.8380,5.000000,5.452428,0.452447,5.452428
0.8390,5.000000,5.470679,0.470611,5.470679
0.8400,5.000000,5.500034,0.500000,5.500034
0.8410,5.000000,5.529418,0.529389,5.529418
0.8420,5.000000,5.547487,0.547553,5.547487
0.8430,5.000000,5.547595,0.547553,5.547595
0.8440,5.000000,5.529393,0.529389,5.529393
0.8450,5.000000,5.499984,0.500000,5.499984
0.8460,5.000000,5.470537,0.470611,5.470537
0.8470,5.000000,5.452442,0.452447,5.452442
0.8480,5.000000,5.452495,0.452447,5.452495
0.8490,5.006218,5.476799,0.470611,5.476799
0.8500,5.006571,5.506626,0.500000,5.506626
0.8510,5.006941,5.536364,0.529389,5.536364
0.8520,5.007327,5.554893,0.547553,5.554893
0.8530,5.007730,5.555325,0.547553,5.555325
0.8540,5.008152,5.537546,0.529389,5.537546
0.8550,5.008591,5.508642,0.500000,5.508642
0.8560,5.009049,5.479685,0.470611,5.479685
0.8570,5.009526,5.462019,0.452447,5.462019
0.8580,5.010023,5.462473,0.452447,5.462473
0.8590,5.010540,5.481109,0.470611,5.481109
0.8600,5.011077,5.511109,0.500000,5.511109
0.8610,5.011635,5.541020,0.529389,5.541020
0.8620,5.012215,5.559727,0.547553,5.559727
0.8630,5.012816,5.560320,0.547553,5.560320
0.8640,5.013440,5.542834,0.529389,5.542834
0.8650,5.014086,5.514156,0.500000,5.514156
0.8660,5.014754,5.485359,0.470611,5.485359
0.8670,5.015446,5.467889,0.452447,5.467889
0.8680,5.016162,5.468673,0.452447,5.468673
0.8690,5.016901,5.487582,0.470611,5.487582
0.8700,5.017664,5.517683,0.500000,5.517683
0.8710,5.018452,5.547834,0.529389,5.547834
0.8720,5.019263,5.566832,0.547553,5.566832
0.8730,5.020100,5.567678,0.547553,5.567678
0.8740,5.020961,5.550337,0.529389,5.550337
0.8750,5.021847,5.521894,0.500000,5.521894
0.8760,5.022757,5.493415,0.470611,5.493415
0.8770,5.023692,5.476124,0.452447,5.476124
0.8780,5.024652,5.477123,0.452447,5.477123
0.8790,5.025637,5.496265,0.470611,5.496265
0.8800,5.026646,5.526729,0.500000,5.526729
0.8810,5.027680,5.557131,0.529389,5.557131
0.8820,5.028738,5.576365,0.547553,5.576365
0.8830,5.029819,5.577300,0.547553,5.577300
0.8840,5.030924,5.560399,0.529389,5.560399
0.8850,5.032053,5.532042,0.500000,5.532042
0.8860,5.033203,5.503802,0.470611,5.503802
0.8870,5.034377,5.486811,0.452447,5.486811
0.8880,5.035571,5.488011,0.452447,5.488011
0.8890,5.036787,5.507456,0.470611,5.507456
0.8900,5.038024,5.538099,0.500000,5.538099
0.8910,5.039280,5.568741,0.529389,5.568741
0.8920,5.040555,5.588157,0.547553,5.588157
0.8930,5.041848,5.589440,0.547553,5.589440
0.8940,5.043158,5.572530,0.529389,5.572530
0.8950,5.044485,5.544546,0.500000,5.544546
0.8960,5.045827,5.516451,0.470611,5.516451
0.8970,5.047183,5.499634,0.452447,5.499634
0.8980,5.048553,5.500997,0.452447,5.500997
0.8990,5.049934,5.520572,0.470611,5.520572
0.9000,5.051327,5.551334,0.500000,5.551334
0.9010,5.052728,5.582090,0.529389,5.582090
0.9020,5.054138,5.601698,0.547553,5.601698
0.9030,5.055555,5.603109,0.547553,5.603109
0.9040,5.056977,5.586303,0.529389,5.586303
0.9050,5.058404,5.558389,0.500000,5.558389
0.9060,5.059832,5.530400,0.470611,5.530400
0.9070,5.061262,5.513677,0.452447,5.513677
0.9080,5.062690,5.515121,0.452447,5.515121
0.9090,5.064117,5.534643,0.470611,5.534643
0.9100,5.065540,5.565555,0.500000,5.565555
0.9110,5.066956,5.596415,0.529389,5.596415
0.9120,5.068366,5.615883,0.547553,5.615883
0.9130,5.069767,5.617261,0.547553,5.617261
0.9140,5.071156,5.600479,0.529389,5.600479
0.9150,5.072533,5.572567,0.500000,5.572567
0.9160,5.073896,5.544480,0.470611,5.544480
0.9170,5.075242,5.527649,0.452447,5.527649
0.9180,5.076570,5.529026,0.452447,5.529026
0.9190,5.077879,5.548469,0.470611,5.548469
0.9200,5.079166,5.579120,0.500000,5.579120
0.9210,5.080429,5.609816,0.529389,5.609816
0.9220,5.081667,5.629233,0.547553,5.629233
0.9230,5.082879,5.630469,0.547553,5.630469
0.9240,5.084061,5.613443,0.529389,5.613443
0.9250,5.085213,5.585133,0.500000,5.585133
0.9260,5.086333,5.556983,0.470611,5.556983
0.9270,5.087419,5.539848,0.452447,5.539848
0.9280,5.088469,5.540969,0.452447,5.540969
0.9290,5.089483,5.560052,0.470611,5.560052
0.9300,5.090457,5.590483,0.500000,5.590483
0.9310,5.091392,5.620753,0.529389,5.620753
0.9320,5.092285,5.639826,0.547553,5.639826
0.9330,5.093135,5.640704,0.547553,5.640704
0.9340,5.093940,5.623299,0.529389,5.623299
0.9350,5.094700,5.594775,0.500000,5.594775
0.9360,5.095413,5.565997,0.470611,5.565997
0.9370,5.096078,5.548525,0.452447,5.548525
0.9380,5.096694,5.549100,0.452447,5.549100
0.9390,5.097260,5.567867,0.470611,5.567867
0.9400,5.097774,5.597817,0.500000,5.597817
0.9410,5.098237,5.627702,0.529389,5.627702
0.9420,5.098647,5.646191,0.547553,5.646191
0.9430,5.099004,5.646572,0.547553,5.646572
0.9440,5.099307,5.628719,0.529389,5.628719
0.9450,5.099556,5.599560,0.500000,5.599560
0.9460,5.099750,5.570334,0.470611,5.570334
0.9470,5.099889,5.552241,0.452447,5.552241
0.9480,5.099972,5.552468,0.452447,5.552468
0.9490,5.100000,5.570605,0.470611,5.570605
0.9500,5.099972,5.599956,0.500000,5.599956
0.9510,5.099889,5.629345,0.529389,5.629345
0.9520,5.099751,5.647280,0.547553,5.647280
0.9530,5.099557,5.647156,0.547553,5.647156
0.9540,5.099309,5.628704,0.529389,5.628704
0.9550,5.099006,5.598941,0.500000,5.598941
0.9560,5.098649,5.569239,0.470611,5.569239
0.9570,5.098239,5.550725,0.452447,5.550725
0.9580,5.097777,5.550207,0.452447,5.550207
0.9590,5.097262,5.567885,0.470611,5.567885
0.9600,5.096697,5.596655,0.500000,5.596655
0.9610,5.096082,5.625559,0.529389,5.625559
0.9620,5.095417,5.643004,0.547553,5.643004
0.9630,5.094704,5.642260,0.547553,5.642260
0.9640,5.093945,5.623277,0.529389,5.623277
0.9650,5.093140,5.593216,0.500000,5.593216
0.9660,5.092291,5.562934,0.470611,5.562934
0.9670,5.091398,5.543855,0.452447,5.543855
0.9680,5.090464,5.542953,0.452447,5.542953
0.9690,5.089490,5.560051,0.470611,5.560051
0.9700,5.088477,5.588562,0.500000,5.588562
0.9710,5.087428,5.616912,0.529389,5.616912
0.9720,5.086342,5.633934,0.547553,5.633934
0.9730,5.085223,5.632705,0.547553,5.632705
0.9740,5.084072,5.613438,0.529389,5.613438
0.9750,5.082890,5.582887,0.500000,5.582887
0.9760,5.081680,5.552334,0.470611,5.552334
0.9770,5.080443,5.532817,0.452447,5.532817
0.9780,5.079180,5.531638,0.452447,5.531638
0.9790,5.077894,5.548550,0.470611,5.548550
0.9800,5.076587,5.576541,0.500000,5.576541
0.9810,5.075260,5.604645,0.529389,5.604645
0.9820,5.073915,5.621514,0.547553,5.621514
0.9830,5.072553,5.620121,0.547553,5.620121
0.9840,5.071178,5.600568,0.529389,5.600568
0.9850,5.069790,5.569761,0.500000,5.569761
0.9860,5.068391,5.539009,0.470611,5.539009
0.9870,5.066983,5.519491,0.452447,5.519491
0.9880,5.065568,5.518072,0.452447,5.518072
0.9890,5.064147,5.534727,0.470611,5.534727
0.9900,5.062723,5.562754,0.500000,5.562754
0.9910,5.061296,5.590677,0.529389,5.590677
0.9920,5.059869,5.607412,0.547553,5.607412
0.9930,5.058443,5.605939,0.547553,5.605939
0.9940,5.057020,5.586438,0.529389,5.586438
0.9950,5.055600,5.555580,0.500000,5.555580
0.9960,5.054186,5.524840,0.470611,5.524840
0.9970,5.052779,5.505187,0.452447,5.505187
0.9980,5.051381,5.503822,0.452447,5.503822
0.9990,5.049992,5.520521,0.470611,5.520521
1.0000,5.048614,5.548522,0.500000,5.548522
1.0010,5.047249,5.576633,0.529389,5.576633
1.0020,5.045897,5.593426,0.547553,5.593426
1.0030,5.044559,5.592028,0.547553,5.592028
1.0040,5.043237,5.572588,0.529389,5.572588
1.0050,5.041932,5.541970,0.500000,5.541970
1.0060,5.040644,5.511244,0.470611,5.511244
1.0070,5.039374,5.491847,0.452447,5.491847
1.0080,5.038124,5.490603,0.452447,5.490603
1.0090,5.036894,5.507520,0.470611,5.507520
1.0100,5.035684,5.535688,0.500000,5.535688
1.0110,5.034496,5.563835,0.529389,5.563835
1.0120,5.033331,5.580872,0.547553,5.580872
1.0130,5.032187,5.579738,0.547553,5.579738
1.0140,5.031067,5.560513,0.529389,5.560513
1.0150,5.029970,5.529943,0.500000,5.529943
1.0160,5.028898,5.499530,0.470611,5.499530
1.0170,5.027850,5.480323,0.452447,5.480323
1.0180,5.026826,5.479257,0.452447,5.479257
1.0190,5.025827,5.496387,0.470611,5.496387
1.0200,5.024853,5.524841,0.500000,5.524841
1.0210,5.023905,5.553312,0.529389,5.553312
1.0220,5.022982,5.570538,0.547553,5.570538
1.0230,5.022084,5.569685,0.547553,5.569685
1.0240,5.021211,5.550639,0.529389,5.550639
1.0250,5.020364,5.520359,0.500000,5.520359
1.0260,5.019543,5.490112,0.470611,5.490112
1.0270,5.018746,5.471167,0.452447,5.471167
1.0280,5.017975,5.470399,0.452447,5.470399
1.0290,5.017229,5.487791,0.470611,5.487791
1.0300,5.016508,5.516510,0.500000,5.516510
1.0310,5.015811,5.545238,0.529389,5.545238
1.0320,5.015139,5.562700,0.547553,5.562700
1.0330,5.014490,5.562027,0.547553,5.562027
1.0340,5.013866,5.543316,0.529389,5.543316
1.0350,5.013265,5.513286,0.500000,5.513286
1.0360,5.012687,5.483295,0.470611,5.483295
1.0370,5.012132,5.464599,0.452447,5.464599
1.0380,5.011600,5.464046,0.452447,5.464046
1.0390,5.011089,5.481643,0.470611,5.481643
1.0400,5.010600,5.510553,0.500000,5.510553
1.0410,5.010133,5.539513,0.529389,5.539513
1.0420,5.009686,5.557245,0.547553,5.557245
1.0430,5.009260,5.556841,0.547553,5.556841
1.0440,5.008854,5.538208,0.529389,5.538208
1.0450,5.008468,5.508478,0.500000,5.508478
1.0460,5.008101,5.478777,0.470611,5.478777
1.0470,5.007752,5.460176,0.452447,5.460176
1.0480,5.007422,5.459892,0.452447,5.459892
1.0490,5.007109,5.477775,0.470611,5.477775
1.0500,5.006814,5.506853,0.500000,5.506853
1.0510,5.006536,5.535890,0.529389,5.535890
1.0520,5.006275,5.553806,0.547553,5.553806
1.0530,5.006030,5.553586,0.547553,5.553586
1.0540,5.005800,5.535185,0.529389,5.535185
1.0550,5.005586,5.505562,0.500000,5.505562
1.0560,5.005386,5.476027,0.470611,5.476027
1.0570,5.005201,5.457538,0.452447,5.457538
1.0580,5.005030,5.457451,0.452447,5.457451
1.0590,5.004873,5.475480,0.470611,5.475480
1.0600,5.004729,5.504702,0.500000,5.504702
1.0610,5.004597,5.533985,0.529389,5.533985
1.0620,5.004479,5.552032,0.547553,5.552032
1.0630,5.004372,5.551997,0.547553,5.551997
1.0640,5.004278,5.533605,0.529389,5.533605
1.0650,5.004195,5.504205,0.500000,5.504205
1.0660,5.004123,5.474677,0.470611,5.474677
1.0670,5.004062,5.456478,0.452447,5.456478
1.0680,5.004011,5.456460,0.452447,5.456460
1.0690,5.003971,5.474584,0.470611,5.474584
1.0700,5.003941,5.503998,0.500000,5.503998
1.0710,5.003920,5.533271,0.529389,5.533271
1.0720,5.003909,5.551451,0.547553,5.551451
1.0730,5.003907,5.551513,0.547553,5.551513
1.0740,5.003914,5.533379,0.529389,5.533379
1.0750,5.003930,5.503903,0.500000,5.503903
1.0760,5.003955,5.474579,0.470611,5.474579
1.0770,5.003987,5.456462,0.452447,5.456462
1.0780,5.004028,5.456402,0.452447,5.456402
1.0790,5.004077,5.474664,0.470611,5.474664
1.0800,5.004133,5.504085,0.500000,5.504085
1.0810,5.004197,5.533588,0.529389,5.533588
1.0820,5.004268,5.551768,0.547553,5.551768
1.0830,5.004347,5.551873,0.547553,5.551873
1.0840,5.004432,5.533791,0.529389,5.533791
1.0850,5.004525,5.504474,0.500000,5.504474
1.0860,5.004624,5.475247,0.470611,5.475247
1.0870,5.004730,5.457165,0.452447,5.457165
1.0880,5.004842,5.457290,0.452447,5.457290
1.0890,5.004961,5.475654,0.470611,5.475654
1.0900,5.005086,5.505112,0.500000,5.505112
1.0910,5.005218,5.534570,0.529389,5.534570
1.0920,5.005355,5.552913,0.547553,5.552913
1.0930,5.005499,5.553039,0.547553,5.553039
1.0940,5.005648,5.534964,0.529389,5.534964
1.0950,5.005804,5.505822,0.500000,5.505822
1.0960,5.005965,5.476612,0.470611,5.476612
1.0970,5.006131,5.458586,0.452447,5.458586
1.0980,5.006304,5.458671,0.452447,5.458671
1.0990,5.006481,5.477095,0.470611,5.477095
1.1000,5.006664,5.506739,0.500000,5.506739
1.1010,5.006853,5.536257,0.529389,5.536257
1.1020,5.007047,5.554602,0.547553,5.554602
1.1030,5.007245,5.554809,0.547553,5.554809
1.1040,5.007449,5.536828,0.529389,5.536828
1.1050,5.007658,5.507641,0.500000,5.507641
1.1060,5.007872,5.478528,0.470611,5.478528
1.1070,5.008091,5.460550,0.452447,5.460550
1.1080,5.008315,5.460804,0.452447,5.460804
1.1090,5.008543,5.479098,0.470611,5.479098
1.1100,5.008776,5.508787,0.500000,5.508787
1.1110,5.009014,5.538383,0.529389,5.538383
1.1120,5.009256,5.556760,0.547553,5.556760
1.1130,5.009503,5.557084,0.547553,5.557084
1.1140,5.009753,5.539130,0.529389,5.539130
1.1150,5.010008,5.510003,0.500000,5.510003
1.1160,5.010268,5.480866,0.470611,5.480866
1.1170,5.010531,5.462923,0.452447,5.462923
1.1180,5.010798,5.463208,0.452447,5.463208
1.1190,5.011069,5.481679,0.470611,5.481679
1.1200,5.011343,5.511330,0.500000,5.511330
1.1210,5.011622,5.541026,0.529389,5.541026
1.1220,5.011904,5.559377,0.547553,5.559377
1.1230,5.012189,5.559799,0.547553,5.559799
1.1240,5.012477,5.541878,0.529389,5.541878
1.1250,5.012769,5.512795,0.500000,5.512795
1.1260,5.013063,5.483642,0.470611,5.483642
1.1270,5.013361,5.465821,0.452447,5.465821
1.1280,5.013661,5.466052,0.452447,5.466052
1.1290,5.013963,5.484549,0.470611,5.484549
1.1300,5.014269,5.514217,0.500000,5.514217
1.1310,5.014576,5.543957,0.529389,5.543957
1.1320,5.014885,5.562451,0.547553,5.562451
1.1330,5.015197,5.562730,0.547553,5.562730
1.1340,5.015510,5.544922,0.529389,5.544922
1.1350,5.015825,5.515850,0.500000,5.515850
1.1360,5.016142,5.486739,0.470611,5.486739
1.1370,5.016459,5.468898,0.452447,5.468898
1.1380,5.016778,5.469231,0.452447,5.469231
1.1390,5.017098,5.487744,0.470611,5.487744
1.1400,5.017418,5.517382,0.500000,5.517382
1.1410,5.017739,5.547178,0.529389,5.547178
1.1420,5.018060,5.565595,0.547553,5.565595
1.1430,5.018381,5.565941,0.547553,5.565941
1.1440,5.018703,5.548042,0.529389,5.548042
1.1450,5.019024,5.518962,0.500000,5.518962
1.1460,5.019344,5.489930,0.470611,5.489930
1.1470,5.019664,5.472062,0.452447,5.472062
1.1480,5.019983,5.472398,0.452447,5.472398
1.1490,5.020300,5.490914,0.470611,5.490914
1.1500,5.020616,5.520627,0.500000,5.520627
1.1510,5.020931,5.550421,0.529389,5.550421
1.1520,5.021244,5.568817,0.547553,5.568817
1.1530,5.021555,5.569159,0.547553,5.569159
1.1540,5.021863,5.551242,0.529389,5.551242
1.1550,5.022169,5.522198,0.500000,5.522198
1.1560,5.022473,5.493084,0.470611,5.493084
1.1570,5.022773,5.475234,0.452447,5.475234
1.1580,5.023070,5.475522,0.452447,5.475522
1.1590,5.023364,5.493987,0.470611,5.493987
1.1600,5.023654,5.523709,0.500000,5.523709
1.1610,5.023940,5.553470,0.529389,5.553470
1.1620,5.024223,5.571785,0.547553,5.571785
1.1630,5.024500,5.572058,0.547553,5.572058
1.1640,5.024774,5.554127,0.529389,5.554127
1.1650,5.025042,5.525056,0.500000,5.525056
1.1660,5.025306,5.495972,0.470611,5.495972
1.1670,5.025564,5.478013,0.452447,5.478013
1.1680,5.025817,5.478268,0.452447,5.478268
1.1690,5.026064,5.496650,0.470611,5.496650
1.1700,5.026306,5.526357,0.500000,5.526357
1.1710,5.026541,5.555914,0.529389,5.555914
1.1720,5.026770,5.574320,0.547553,5.574320
1.1730,5.026992,5.574566,0.547553,5.574566
1.1740,5.027208,5.556572,0.529389,5.556572
1.1750,5.027418,5.527382,0.500000,5.527382
1.1760,5.027620,5.498262,0.470611,5.498262
1.1770,5.027814,5.480223,0.452447,5.480223
1.1780,5.028002,5.480357,0.452447,5.480357
1.1790,5.028182,5.498736,0.470611,5.498736
1.1800,5.028354,5.528333,0.500000,5.528333
1.1810,5.028519,5.557848,0.529389,5.557848
1.1820,5.028675,5.576169,0.547553,5.576169
1.1830,5.028823,5.576372,0.547553,5.576372
1.1840,5.028963,5.558377,0.529389,5.558377
1.1850,5.029095,5.529055,0.500000,5.529055
1.1860,5.029218,5.499821,0.470611,5.499821
1.1870,5.029332,5.481763,0.452447,5.481763
1.1880,5.029438,5.481894,0.452447,5.481894
1.1890,5.029534,5.500166,0.470611,5.500166
1.1900,5.029622,5.529583,0.500000,5.529583
1.1910,5.029701,5.559024,0.529389,5.559024
1.1920,5.029771,5.577275,0.547553,5.577275
1.1930,5.029831,5.577430,0.547553,5.577430
1.1940,5.029883,5.559335,0.529389,5.559335
1.1950,5.029925,5.529862,0.500000,5.529862
1.1960,5.029957,5.500583,0.470611,5.500583
1.1970,5.029981,5.482369,0.452447,5.482369
1.1980,5.029995,5.482499,0.452447,5.482499
1.1990,5.029999,5.500600,0.470611,5.500600
1.2000,5.029995,5.530060,0.500000,5.530060
1.2010,5.029981,5.559410,0.529389,5.559410
1.2020,5.029957,5.577499,0.547553,5.577499
1.2030,5.029925,5.577516,0.547553,5.577516
1.2040,5.029883,5.559255,0.529389,5.559255
1.2050,5.029831,5.529816,0.500000,5.529816
1.2060,5.029771,5.500400,0.470611,5.500400
1.2070,5.029701,5.482128,0.452447,5.482128
1.2080,5.029622,5.481965,0.452447,5.481965
1.2090,5.029534,5.500100,0.470611,5.500100
1.2100,5.029438,5.529413,0.500000,5.529413
1.2110,5.029332,5.558671,0.529389,5.558671
1.2120,5.029218,5.576808,0.547553,5.576808
1.2130,5.029095,5.576591,0.547553,5.576591
1.2140,5.028963,5.558322,0.529389,5.558322
1.2150,5.028823,5.528810,0.500000,5.528810
1.2160,5.028675,5.499258,0.470611,5.499258
1.2170,5.028519,5.480903,0.452447,5.480903
1.2180,5.028354,5.480819,0.452447,5.480819
1.2190,5.028182,5.498777,0.470611,5.498777
1.2200,5.028002,5.528062,0.500000,5.528062
1.2210,5.027814,5.557224,0.529389,5.557224
1.2220,5.027620,5.575221,0.547553,5.575221
1.2230,5.027417,5.574948,0.547553,5.574948
1.2240,5.027208,5.556630,0.529389,5.556630
1.2250,5.026992,5.527070,0.500000,5.527070
1.2260,5.026770,5.497377,0.470611,5.497377
1.2270,5.026541,5.478950,0.452447,5.478950
1.2280,5.026305,5.478723,0.452447,5.478723
1.2290,5.026064,5.496665,0.470611,5.496665
1.2300,5.025817,5.525853,0.500000,5.525853
1.2310,5.025564,5.554870,0.529389,5.554870
1.2320,5.025306,5.572823,0.547553,5.572823
1.2330,5.025042,5.572562,0.547553,5.572562
1.2340,5.024773,5.554189,0.529389,5.554189
1.2350,5.024500,5.524515,0.500000,5.524515
1.2360,5.024222,5.494828,0.470611,5.494828
1.2370,5.023940,5.476389,0.452447,5.476389
1.2380,5.023654,5.476124,0.452447,5.476124
1.2390,5.023364,5.493980,0.470611,5.493980
1.2400,5.023070,5.523119,0.500000,5.523119
1.2410,5.022773,5.552177,0.529389,5.552177
1.2420,5.022472,5.570018,0.547553,5.570018
1.2430,5.022169,5.569712,0.547553,5.569712
1.2440,5.021863,5.551244,0.529389,5.551244
1.2450,5.021554,5.521517,0.500000,5.521517
1.2460,5.021243,5.491857,0.470611,5.491857
1.2470,5.020930,5.473394,0.452447,5.473394
1.2480,5.020615,5.473086,0.452447,5.473086
1.2490,5.020299,5.490893,0.470611,5.490893
1.2500,5.019981,5.519971,0.500000,5.519971
1.2510,5.019662,5.549021,0.529389,5.549021
1.2520,5.019342,5.566853,0.547553,5.566853
1.2530,5.019021,5.566535,0.547553,5.566535
1.2540,5.018700,5.548073,0.529389,5.548073
1.2550,5.018378,5.518405,0.500000,5.518405
1.2560,5.018057,5.488652,0.470611,5.488652
1.2570,5.017735,5.470119,0.452447,5.470119
1.2580,5.017414,5.469846,0.452447,5.469846
1.2590,5.017093,5.487665,0.470611,5.487665
1.2600,5.016773,5.516770,0.500000,5.516770
1.2610,5.016454,5.545851,0.529389,5.545851
1.2620,5.016136,5.563686,0.547553,5.563686
1.2630,5.015819,5.563330,0.547553,5.563330
1.2640,5.015503,5.544835,0.529389,5.544835
1.2650,5.015189,5.515171,0.500000,5.515171
1.2660,5.014876,5.485495,0.470611,5.485495
1.2670,5.014566,5.467096,0.452447,5.467096
1.2680,5.014257,5.466707,0.452447,5.466707
1.2690,5.013951,5.484510,0.470611,5.484510
1.2700,5.013647,5.513618,0.500000,5.513618
1.2710,5.013346,5.542751,0.529389,5.542751
1.2720,5.013047,5.560656,0.547553,5.560656
1.2730,5.012750,5.560286,0.547553,5.560286
1.2740,5.012457,5.541834,0.529389,5.541834
1.2750,5.012166,5.512208,0.500000,5.512208
1.2760,5.011879,5.482564,0.470611,5.482564
1.2770,5.011595,5.464086,0.452447,5.464086
1.2780,5.011314,5.463694,0.452447,5.463694
1.2790,5.011036,5.481670,0.470611,5.481670
1.2800,5.010762,5.510724,0.500000,5.510724
1.2810,5.010491,5.539892,0.529389,5.539892
1.2820,5.010224,5.557790,0.547553,5.557790
1.2830,5.009961,5.557476,0.547553,5.557476
1.2840,5.009701,5.539067,0.529389,5.539067
1.2850,5.009446,5.509382,0.500000,5.509382
1.2860,5.009194,5.479781,0.470611,5.479781
1.2870,5.008946,5.461367,0.452447,5.461367
1.2880,5.008702,5.461134,0.452447,5.461134
1.2890,5.008462,5.479101,0.470611,5.479101
1.2900,5.008226,5.508267,0.500000,5.508267
1.2910,5.007994,5.537341,0.529389,5.537341
1.2920,5.007766,5.555313,0.547553,5.555313
1.2930,5.007543,5.555083,0.547553,5.555083
1.2940,5.007323,5.536763,0.529389,5.536763
1.2950,5.007108,5.507068,0.500000,5.507068
1.2960,5.006897,5.477497,0.470611,5.477497
1.2970,5.006690,5.459164,0.452447,5.459164
1.2980,5.006487,5.458924,0.452447,5.458924
1.2990,5.006288,5.476885,0.470611,5.476885
1.3000,5.006094,5.506014,0.500000,5.506014
1.3010,5.005904,5.535280,0.529389,5.535280
1.3020,5.005717,5.553360,0.547553,5.553360
1.3030,5.005535,5.553087,0.547553,5.553087
1.3040,5.005358,5.534728,0.529389,5.534728
1.3050,5.005184,5.505164,0.500000,5.505164
1.3060,5.005014,5.475688,0.470611,5.475688
1.3070,5.004849,5.457307,0.452447,5.457307
1.3080,5.004687,5.457171,0.452447,5.457171
1.3090,5.004529,5.475130,0.470611,5.475130
1.3100,5.004376,5.504378,0.500000,5.504378
1.3110,5.004226,5.533506,0.529389,5.533506
1.3120,5.004080,5.551618,0.547553,5.551618
1.3130,5.003938,5.551512,0.547553,5.551512
1.3140,5.003799,5.533200,0.529389,5.533200
1.3150,5.003664,5.503675,0.500000,5.503675
1.3160,5.003533,5.474146,0.470611,5.474146
1.3170,5.003406,5.455893,0.452447,5.455893
1.3180,5.003282,5.455638,0.452447,5.455638
1.3190,5.003162,5.473768,0.470611,5.473768
1.3200,5.003045,5.503124,0.500000,5.503124
1.3210,5.002932,5.532263,0.529389,5.532263
1.3220,5.002822,5.550446,0.547553,5.550446
1.3230,5.002715,5.550283,0.547553,5.550283
1.3240,5.002611,5.531993,0.529389,5.531993
1.3250,5.002511,5.502518,0.500000,5.502518
1.3260,5.002413,5.473009,0.470611,5.473009
1.3270,5.002319,5.454768,0.452447,5.454768
1.3280,5.002228,5.454704,0.452447,5.454704
1.3290,5.002139,5.472720,0.470611,5.472720
1.3300,5.002054,5.502020,0.500000,5.502020
1.3310,5.001971,5.531317,0.529389,5.531317
1.3320,5.001891,5.549456,0.547553,5.549456
1.3330,5.001814,5.549266,0.547553,5.549266
1.3340,5.001739,5.531107,0.529389,5.531107
1.3350,5.001667,5.501744,0.500000,5.501744
1.3360,5.001598,5.472257,0.470611,5.472257
1.3370,5.001530,5.453933,0.452447,5.453933
1.3380,5.001466,5.453935,0.452447,5.453935
1.3390,5.001403,5.472020,0.470611,5.472020
1.3400,5.001343,5.501430,0.500000,5.501430
1.3410,5.001285,5.530669,0.529389,5.530669
1.3420,5.001229,5.548694,0.547553,5.548694
1.3430,5.001175,5.548658,0.547553,5.548658
1.3440,5.001123,5.530582,0.529389,5.530582
1.3450,5.001073,5.501017,0.500000,5.501017
1.3460,5.001025,5.471575,0.470611,5.471575
1.3470,5.000979,5.453490,0.452447,5.453490
1.3480,5.000935,5.453418,0.452447,5.453418
1.3490,5.000892,5.471513,0.470611,5.471513
1.3500,5.000851,5.500849,0.500000,5.500849
1.3510,5.000812,5.530195,0.529389,5.530195
1.3520,5.000774,5.548354,0.547553,5.548354
1.3530,5.000738,5.548307,0.547553,5.548307
1.3540,5.000703,5.530157,0.529389,5.530157
1.3550,5.000669,5.500629,0.500000,5.500629
1.3560,5.000637,5.471298,0.470611,5.471298
1.3570,5.000607,5.453021,0.452447,5.453021
1.3580,5.000578,5.453058,0.452447,5.453058
1.3590,5.000549,5.471170,0.470611,5.471170
1.3600,5.000523,5.500502,0.500000,5.500502
1.3610,5.000497,5.529858,0.529389,5.529858
1.3620,5.000472,5.548102,0.547553,5.548102
1.3630,5.000449,5.548085,0.547553,5.548085
1.3640,5.000426,5.529774,0.529389,5.529774
1.3650,5.000405,5.500393,0.500000,5.500393
1.3660,5.000384,5.471075,0.470611,5.471075
1.3670,5.000365,5.452772,0.452447,5.452772
1.3680,5.000346,5.452787,0.452447,5.452787
1.3690,5.000328,5.470959,0.470611,5.470959
1.3700,5.000311,5.500362,0.500000,5.500362
1.3710,5.000295,5.529702,0.529389,5.529702
1.3720,5.000279,5.547745,0.547553,5.547745
1.3730,5.000265,5.547808,0.547553,5.547808
1.3740,5.000251,5.529652,0.529389,5.529652
1.3750,5.000237,5.500212,0.500000,5.500212
1.3760,5.000224,5.470861,0.470611,5.470861
1.3770,5.000212,5.452710,0.452447,5.452710
1.3780,5.000201,5.452654,0.452447,5.452654
1.3790,5.000190,5.470794,0.470611,5.470794
1.3800,5.000179,5.500126,0.500000,5.500126
1.3810,5.000170,5.529588,0.529389,5.529588
1.3820,5.000160,5.547661,0.547553,5.547661
1.3830,5.000151,5.547830,0.547553,5.547830
1.3840,5.000143,5.529464,0.529389,5.529464
1.3850,5.000135,5.500180,0.500000,5.500180
1.3860,5.000127,5.470693,0.470611,5.470693
1.3870,5.000120,5.452540,0.452447,5.452540
1.3880,5.000113,5.452560,0.452447,5.452560
1.3890,5.000107,5.470715,0.470611,5.470715
1.3900,5.000100,5.500103,0.500000,5.500103
1.3910,5.000095,5.529501,0.529389,5.529501
1.3920,5.000089,5.547656,0.547553,5.547656
1.3930,5.000084,5.547667,0.547553,5.547667
1.3940,5.000079,5.529459,0.529389,5.529459
1.3950,5.000074,5.500098,0.500000,5.500098
1.3960,5.000070,5.470709,0.470611,5.470709
1.3970,5.000066,5.452499,0.452447,5.452499
1.3980,5.000062,5.452570,0.452447,5.452570
1.3990,5.000058,5.470629,0.470611,5.470629
1.4000,5.000054,5.499965,0.500000,5.499965
1.4010,5.000051,5.529400,0.529389,5.529400
1.4020,5.000048,5.547635,0.547553,5.547635
1.4030,5.000045,5.547471,0.547553,5.547471
1.4040,5.000042,5.529481,0.529389,5.529481
1.4050,5.000040,5.500135,0.500000,5.500135
1.4060,5.000037,5.470617,0.470611,5.470617
1.4070,5.000035,5.452509,0.452447,5.452509
1.4080,5.000033,5.452586,0.452447,5.452586
1.4090,5.000031,5.470657,0.470611,5.470657
1.4100,5.000029,5.500058,0.500000,5.500058
1.4110,5.000027,5.529495,0.529389,5.529495
1.4120,5.000025,5.547591,0.547553,5.547591
1.4130,5.000023,5.547563,0.547553,5.547563
1.4140,5.000022,5.529450,0.529389,5.529450
1.4150,5.000020,5.500077,0.500000,5.500077
1.4160,5.000019,5.470593,0.470611,5.470593
1.4170,5.000018,5.452431,0.452447,5.452431
1.4180,5.000017,5.452532,0.452447,5.452532
1.4190,5.000016,5.470613,0.470611,5.470613
1.4200,5.000015,5.499954,0.500000,5.499954
1.4210,5.000014,5.529422,0.529389,5.529422
1.4220,5.000013,5.547498,0.547553,5.547498
1.4230,5.000012,5.547466,0.547553,5.547466
1.4240,5.000011,5.529384,0.529389,5.529384
1.4250,5.000010,5.500004,0.500000,5.500004
1.4260,5.000010,5.470640,0.470611,5.470640
1.4270,5.000009,5.452507,0.452447,5.452507
1.4280,5.000008,5.452441,0.452447,5.452441
1.4290,5.000008,5.470631,0.470611,5.470631
1.4300,5.000007,5.500014,0.500000,5.500014
1.4310,5.000007,5.529419,0.529389,5.529419
1.4320,5.000006,5.547560,0.547553,5.547560
1.4330,5.000006,5.547565,0.547553,5.547565
1.4340,5.000005,5.529412,0.529389,5.529412
1.4350,5.000005,5.500008,0.500000,5.500008
1.4360,5.000005,5.470575,0.470611,5.470575
1.4370,5.000004,5.452456,0.452447,5.452456
1.4380,5.000004,5.452473,0.452447,5.452473
1.4390,5.000004,5.470534,0.470611,5.470534
1.4400,5.000003,5.500060,0.500000,5.500060
1.4410,5.000003,5.529434,0.529389,5.529434
1.4420,5.000003,5.547589,0.547553,5.547589
1.4430,5.000003,5.547557,0.547553,5.547557
1.4440,5.000003,5.529375,0.529389,5.529375
1.4450,5.000002,5.500002,0.500000,5.500002
1.4460,5.000002,5.470620,0.470611,5.470620
1.4470,5.000002,5.452383,0.452447,5.452383
1.4480,5.000002,5.452430,0.452447,5.452430
1.4490,5.000002,5.470569,0.470611,5.470569
1.4500,5.000002,5.499960,0.500000,5.499960
1.4510,5.000001,5.529373,0.529389,5.529373
1.4520,5.000001,5.547568,0.547553,5.547568
1.4530,5.000001,5.547582,0.547553,5.547582
1.4540,5.000001,5.529349,0.529389,5.529349
1.4550,5.000001,5.499986,0.500000,5.499986
1.4560,5.000001,5.470630,0.470611,5.470630
1.4570,5.000001,5.452440,0.452447,5.452440
1.4580,5.000001,5.452463,0.452447,5.452463
1.4590,5.000001,5.470533,0.470611,5.470533
1.4600,5.000001,5.500074,0.500000,5.500074
1.4610,5.000001,5.529407,0.529389,5.529407
1.4620,5.000001,5.547572,0.547553,5.547572
1.4630,5.000001,5.547550,0.547553,5.547550
1.4640,5.000001,5.529424,0.529389,5.529424
1.4650,5.000000,5.499924,0.500000,5.499924
1.4660,5.000000,5.470615,0.470611,5.470615
1.4670,5.000000,5.452471,0.452447,5.452471
1.4680,5.000000,5.452488,0.452447,5.452488
1.4690,5.000000,5.470590,0.470611,5.470590
1.4700,5.000000,5.500010,0.500000,5.500010
1.4710,5.000000,5.529402,0.529389,5.529402
1.4720,5.000000,5.547566,0.547553,5.547566
1.4730,5.000000,5.547540,0.547553,5.547540
1.4740,5.000000,5.529394,0.529389,5.529394
1.4750,5.000000,5.500023,0.500000,5.500023
1.4760,5.000000,5.470639,0.470611,5.470639
1.4770,5.000000,5.452451,0.452447,5.452451
1.4780,5.000000,5.452408,0.452447,5.452408
1.4790,5.000000,5.470617,0.470611,5.470617
1.4800,5.000000,5.500009,0.500000,5.500009
1.4810,5.000000,5.529308,0.529389,5.529308
1.4820,5.000000,5.547549,0.547553,5.547549
1.4830,5.000000,5.547548,0.547553,5.547548
1.4840,5.000000,5.529295,0.529389,5.529295
1.4850,5.000000,5.500026,0.500000,5.500026
1.4860,5.000000,5.470588,0.470611,5.470588
1.4870,5.000000,5.452393,0.452447,5.452393
1.4880,5.000000,5.452440,0.452447,5.452440
1.4890,5.000000,5.470651,0.470611,5.470651
1.4900,5.000000,5.499883,0.500000,5.499883
1.4910,5.000000,5.529414,0.529389,5.529414
1.4920,5.000000,5.547494,0.547553,5.547494
1.4930,5.000000,5.547545,0.547553,5.547545
1.4940,5.000000,5.529310,0.529389,5.529310
1.4950,5.000000,5.499978,0.500000,5.499978
1.4960,5.000000,5.470636,0.470611,5.470636
1.4970,5.000000,5.452462,0.452447,5.452462
1.4980,5.000000,5.452378,0.452447,5.452378
1.4990,5.000000,5.470564,0.470611,5.470564
1.5000,5.000000,5.499938,0.500000,5.499938
1.5010,5.000000,5.529282,0.529389,5.529282
1.5020,5.000000,5.547581,0.547553,5.547581
1.5030,5.000000,5.547550,0.547553,5.547550
1.5040,5.000000,5.529473,0.529389,5.529473
1.5050,5.000000,5.500024,0.500000,5.500024
1.5060,5.000000,5.470661,0.470611,5.470661
1.5070,5.000000,5.452430,0.452447,5.452430
1.5080,5.000000,5.452473,0.452447,5.452473
1.5090,5.000000,5.470629,0.470611,5.470629
1.5100,5.000000,5.499995,0.500000,5.499995
1.5110,5.000000,5.529456,0.529389,5.529456
1.5120,5.000000,5.547551,0.547553,5.547551
1.5130,5.000000,5.547637,0.547553,5.547637
1.5140,5.000000,5.529439,0.529389,5.529439
1.5150,5.000000,5.499985,0.500000,5.499985
1.5160,5.000000,5.470624,0.470611,5.470624
1.5170,5.000000,5.452396,0.452447,5.452396
1.5180,5.000000,5.452497,0.452447,5.452497
1.5190,5.000000,5.470723,0.470611,5.470723
1.5200,5.000000,5.500000,0.500000,5.500000
1.5210,5.000000,5.529391,0.529389,5.529391
1.5220,5.000000,5.547548,0.547553,5.547548
1.5230,5.000000,5.547542,0.547553,5.547542
1.5240,5.000000,5.529362,0.529389,5.529362
1.5250,5.000000,5.499976,0.500000,5.499976
1.5260,5.000000,5.470596,0.470611,5.470596
1.5270,5.000000,5.452455,0.452447,5.452455
1.5280,5.000000,5.452480,0.452447,5.452480
1.5290,5.000000,5.470584,0.470611,5.470584
1.5300,5.000000,5.499988,0.500000,5.499988
1.5310,5.000000,5.529454,0.529389,5.529454
1.5320,5.000000,5.547553,0.547553,5.547553
1.5330,5.000000,5.547491,0.547553,5.547491
1.5340,5.000000,5.529409,0.529389,5.529409
1.5350,5.000000,5.500023,0.500000,5.500023
1.5360,5.000000,5.470579,0.470611,5.470579
1.5370,5.000000,5.452454,0.452447,5.452454
1.5380,5.000000,5.452361,0.452447,5.452361
1.5390,5.000000,5.470579,0.470611,5.470579
1.5400,5.000000,5.499959,0.500000,5.499959
1.5410,5.000000,5.529330,0.529389,5.529330
1.5420,5.000000,5.547579,0.547553,5.547579
1.5430,5.000000,5.547546,0.547553,5.547546
1.5440,5.000000,5.529390,0.529389,5.529390
1.5450,5.000000,5.499996,0.500000,5.499996
1.5460,5.000000,5.470588,0.470611,5.470588
1.5470,5.000000,5.452424,0.452447,5.452424
1.5480,5.000000,5.452444,0.452447,5.452444
1.5490,5.000000,5.470599,0.470611,5.470599
1.5500,5.000000,5.500036,0.500000,5.500036
1.5510,5.000000,5.529438,0.529389,5.529438
1.5520,5.000000,5.547488,0.547553,5.547488
1.5530,5.000000,5.547577,0.547553,5.547577
1.5540,5.000000,5.529410,0.529389,5.529410
1.5550,5.000000,5.500066,0.500000,5.500066
1.5560,5.000000,5.470620,0.470611,5.470620
1.5570,5.000000,5.452447,0.452447,5.452447
1.5580,5.000000,5.452383,0.452447,5.452383
1.5590,5.000000,5.470630,0.470611,5.470630
1.5600,5.000000,5.499905,0.500000,5.499905
1.5610,5.000000,5.529358,0.529389,5.529358
1.5620,5.000000,5.547560,0.547553,5.547560
1.5630,5.000000,5.547540,0.547553,5.547540
1.5640,5.000000,5.529349,0.529389,5.529349
1.5650,5.000000,5.500057,0.500000,5.500057
1.5660,5.000000,5.470567,0.470611,5.470567
1.5670,5.000000,5.452472,0.452447,5.452472
1.5680,5.000000,5.452454,0.452447,5.452454
1.5690,5.000000,5.470642,0.470611,5.470642
1.5700,5.000000,5.500041,0.500000,5.500041
1.5710,5.000000,5.529384,0.529389,5.529384
1.5720,5.000000,5.547523,0.547553,5.547523
1.5730,5.000000,5.547616,0.547553,5.547616
1.5740,5.000000,5.529475,0.529389,5.529475
1.5750,5.000000,5.499998,0.500000,5.499998
1.5760,5.000000,5.470581,0.470611,5.470581
1.5770,5.000000,5.452380,0.452447,5.452380
1.5780,5.000000,5.452502,0.452447,5.452502
1.5790,5.000000,5.470542,0.470611,5.470542
1.5800,5.000000,5.500038,0.500000,5.500038
1.5810,5.000000,5.529310,0.529389,5.529310
1.5820,5.000000,5.547446,0.547553,5.547446
1.5830,5.000000,5.547630,0.547553,5.547630
1.5840,5.000000,5.529381,0.529389,5.529381
1.5850,5.000000,5.499908,0.500000,5.499908
1.5860,5.000000,5.470642,0.470611,5.470642
1.5870,5.000000,5.452500,0.452447,5.452500
1.5880,5.000000,5.452455,0.452447,5.452455
1.5890,5.000000,5.470650,0.470611,5.470650
1.5900,5.000000,5.499961,0.500000,5.499961
1.5910,5.000000,5.529388,0.529389,5.529388
1.5920,5.000000,5.547535,0.547553,5.547535
1.5930,5.000000,5.547535,0.547553,5.547535
1.5940,5.000000,5.529404,0.529389,5.529404
1.5950,5.000000,5.499995,0.500000,5.499995
1.5960,5.000000,5.470645,0.470611,5.470645
1.5970,5.000000,5.452463,0.452447,5.452463
1.5980,5.000000,5.452451,0.452447,5.452451
1.5990,5.000000,5.470583,0.470611,5.470583
1.6000,5.000000,5.499961,0.500000,5.499961
1.6010,5.000000,5.529426,0.529389,5.529426
1.6020,5.000000,5.547563,0.547553,5.547563
1.6030,5.000000,5.547558,0.547553,5.547558
1.6040,5.000000,5.529325,0.529389,5.529325
1.6050,5.000000,5.499999,0.500000,5.499999
1.6060,5.000000,5.470644,0.470611,5.470644
1.6070,5.000000,5.452494,0.452447,5.452494
1.6080,5.000000,5.452534,0.452447,5.452534
1.6090,5.000000,5.470605,0.470611,5.470605
1.6100,5.000000,5.499982,0.500000,5.499982
1.6110,5.000000,5.529465,0.529389,5.529465
1.6120,5.000000,5.547560,0.547553,5.547560
1.6130,5.000000,5.547632,0.547553,5.547632
1.6140,5.000000,5.529382,0.529389,5.529382
1.6150,5.000000,5.500036,0.500000,5.500036
1.6160,5.000000,5.470645,0.470611,5.470645
1.6170,5.000000,5.452387,0.452447,5.452387
1.6180,5.000000,5.452513,0.452447,5.452513
1.6190,5.000000,5.470593,0.470611,5.470593
1.6200,5.000000,5.500024,0.500000,5.500024
1.6210,5.000000,5.529424,0.529389,5.529424
1.6220,5.000000,5.547530,0.547553,5.547530
1.6230,5.000000,5.547510,0.547553,5.547510
1.6240,5.000000,5.529328,0.529389,5.529328
1.6250,5.000000,5.500006,0.500000,5.500006
1.6260,5.000000,5.470631,0.470611,5.470631
1.6270,5.000000,5.452506,0.452447,5.452506
1.6280,5.000000,5.452372,0.452447,5.452372
1.6290,5.000000,5.470674,0.470611,5.470674
1.6300,5.000000,5.500026,0.500000,5.500026
1.6310,5.000000,5.529434,0.529389,5.529434
1.6320,5.000000,5.547585,0.547553,5.547585
1.6330,5.000000,5.547528,0.547553,5.547528
1.6340,5.000000,5.529354,0.529389,5.529354
1.6350,5.000000,5.499983,0.500000,5.499983
1.6360,5.000000,5.470668,0.470611,5.470668
1.6370,5.000000,5.452488,0.452447,5.452488
1.6380,5.000000,5.452452,0.452447,5.452452
1.6390,5.000000,5.470645,0.470611,5.470645
1.6400,5.000000,5.499965,0.500000,5.499965
1.6410,5.000000,5.529370,0.529389,5.529370
1.6420,5.000000,5.547593,0.547553,5.547593
1.6430,5.000000,5.547655,0.547553,5.547655
1.6440,5.000000,5.529381,0.529389,5.529381
1.6450,5.000000,5.500037,0.500000,5.500037
1.6460,5.000000,5.470552,0.470611,5.470552
1.6470,5.000000,5.452404,0.452447,5.452404
1.6480,5.000000,5.452419,0.452447,5.452419
1.6490,5.000000,5.470578,0.470611,5.470578
1.6500,5.000000,5.499969,0.500000,5.499969
1.6510,5.000000,5.529432,0.529389,5.529432
1.6520,5.000000,5.547512,0.547553,5.547512
1.6530,5.000000,5.547547,0.547553,5.547547
1.6540,5.000000,5.529407,0.529389,5.529407
1.6550,5.000000,5.500024,0.500000,5.500024
1.6560,5.000000,5.470618,0.470611,5.470618
1.6570,5.000000,5.452460,0.452447,5.452460
1.6580,5.000000,5.452426,0.452447,5.452426
1.6590,5.000000,5.470596,0.470611,5.470596
1.6600,5.000000,5.499949,0.500000,5.499949
1.6610,5.000000,5.529364,0.529389,5.529364
1.6620,5.000000,5.547625,0.547553,5.547625
1.6630,5.000000,5.547571,0.547553,5.547571
1.6640,5.000000,5.529336,0.529389,5.529336
1.6650,5.000000,5.499969,0.500000,5.499969
1.6660,5.000000,5.470599,0.470611,5.470599
1.6670,5.000000,5.452390,0.452447,5.452390
1.6680,5.000000,5.452446,0.452447,5.452446
1.6690,5.000000,5.470581,0.470611,5.470581
1.6700,5.000000,5.500016,0.500000,5.500016
1.6710,5.000000,5.529389,0.529389,5.529389
1.6720,5.000000,5.547578,0.547553,5.547578
1.6730,5.000000,5.547521,0.547553,5.547521
1.6740,5.000000,5.529372,0.529389,5.529372
1.6750,5.000000,5.499924,0.500000,5.499924
1.6760,5.000000,5.470634,0.470611,5.470634
1.6770,5.000000,5.452488,0.452447,5.452488
1.6780,5.000000,5.452383,0.452447,5.452383
1.6790,5.006218,5.476770,0.470611,5.476770
1.6800,5.006571,5.506594,0.500000,5.506594
1.6810,5.006941,5.536346,0.529389,5.536346
1.6820,5.007327,5.554844,0.547553,5.554844
1.6830,5.007730,5.555267,0.547553,5.555267
1.6840,5.008152,5.537528,0.529389,5.537528
1.6850,5.008591,5.508654,0.500000,5.508654
1.6860,5.009049,5.479698,0.470611,5.479698
1.6870,5.009526,5.462012,0.452447,5.462012
1.6880,5.010023,5.462485,0.452447,5.462485
1.6890,5.010540,5.481213,0.470611,5.481213
1.6900,5.011077,5.511029,0.500000,5.511029
1.6910,5.011635,5.541070,0.529389,5.541070
1.6920,5.012215,5.559771,0.547553,5.559771
1.6930,5.012816,5.560347,0.547553,5.560347
1.6940,5.013440,5.542811,0.529389,5.542811
1.6950,5.014086,5.514046,0.500000,5.514046
1.6960,5.014754,5.485413,0.470611,5.485413
1.6970,5.015446,5.467915,0.452447,5.467915
1.6980,5.016162,5.468553,0.452447,5.468553
1.6990,5.016901,5.487432,0.470611,5.487432
1.7000,5.017664,5.517697,0.500000,5.517697
1.7010,5.018452,5.547837,0.529389,5.547837
1.7020,5.019263,5.566783,0.547553,5.566783
1.7030,5.020100,5.567647,0.547553,5.567647
1.7040,5.020961,5.550373,0.529389,5.550373
1.7050,5.021847,5.521865,0.500000,5.521865
1.7060,5.022757,5.493345,0.470611,5.493345
1.7070,5.023692,5.476083,0.452447,5.476083
1.7080,5.024652,5.477104,0.452447,5.477104
1.7090,5.025637,5.496288,0.470611,5.496288
1.7100,5.026646,5.526696,0.500000,5.526696
1.7110,5.027680,5.557120,0.529389,5.557120
1.7120,5.028738,5.576303,0.547553,5.576303
1.7130,5.029819,5.577392,0.547553,5.577392
1.7140,5.030924,5.560347,0.529389,5.560347
1.7150,5.032053,5.532045,0.500000,5.532045
1.7160,5.033203,5.503800,0.470611,5.503800
1.7170,5.034377,5.486848,0.452447,5.486848
1.7180,5.035571,5.487996,0.452447,5.487996
1.7190,5.036787,5.507403,0.470611,5.507403
1.7200,5.038024,5.538007,0.500000,5.538007
1.7210,5.039280,5.568672,0.529389,5.568672
1.7220,5.040555,5.588113,0.547553,5.588113
1.7230,5.041848,5.589360,0.547553,5.589360
1.7240,5.043158,5.572529,0.529389,5.572529
1.7250,5.044485,5.544489,0.500000,5.544489
1.7260,5.045827,5.516356,0.470611,5.516356
1.7270,5.047183,5.499627,0.452447,5.499627
1.7280,5.048553,5.500950,0.452447,5.500950
1.7290,5.049934,5.520555,0.470611,5.520555
1.7300,5.051327,5.551326,0.500000,5.551326
1.7310,5.052728,5.582114,0.529389,5.582114
1.7320,5.054138,5.601671,0.547553,5.601671
1.7330,5.055555,5.603045,0.547553,5.603045
1.7340,5.056977,5.586416,0.529389,5.586416
1.7350,5.058404,5.558414,0.500000,5.558414
1.7360,5.059832,5.530455,0.470611,5.530455
1.7370,5.061262,5.513701,0.452447,5.513701
1.7380,5.062690,5.515162,0.452447,5.515162
1.7390,5.064117,5.534725,0.470611,5.534725
1.7400,5.065540,5.565552,0.500000,5.565552
1.7410,5.066956,5.596239,0.529389,5.596239
1.7420,5.068366,5.615921,0.547553,5.615921
1.7430,5.069767,5.617277,0.547553,5.617277
1.7440,5.071156,5.600590,0.529389,5.600590
1.7450,5.072533,5.572546,0.500000,5.572546
1.7460,5.073896,5.544510,0.470611,5.544510
1.7470,5.075242,5.527675,0.452447,5.527675
1.7480,5.076570,5.528984,0.452447,5.528984
1.7490,5.077879,5.548509,0.470611,5.548509
1.7500,5.079166,5.579106,0.500000,5.579106
1.7510,5.080429,5.609886,0.529389,5.609886
1.7520,5.081667,5.629252,0.547553,5.629252
1.7530,5.082879,5.630395,0.547553,5.630395
1.7540,5.084061,5.613375,0.529389,5.613375
1.7550,5.085213,5.585247,0.500000,5.585247
1.7560,5.086333,5.557018,0.470611,5.557018
1.7570,5.087419,5.539819,0.452447,5.539819
1.7580,5.088469,5.540838,0.452447,5.540838
1.7590,5.089483,5.560097,0.470611,5.560097
1.7600,5.090457,5.590360,0.500000,5.590360
1.7610,5.091392,5.620809,0.529389,5.620809
1.7620,5.092285,5.639759,0.547553,5.639759
1.7630,5.093135,5.640693,0.547553,5.640693
1.7640,5.093940,5.623342,0.529389,5.623342
1.7650,5.094700,5.594707,0.500000,5.594707
1.7660,5.095413,5.566073,0.470611,5.566073
1.7670,5.096078,5.548527,0.452447,5.548527
1.7680,5.096694,5.549167,0.452447,5.549167
1.7690,5.097260,5.567834,0.470611,5.567834
1.7700,5.097774,5.597745,0.500000,5.597745
1.7710,5.098237,5.627644,0.529389,5.627644
1.7720,5.098647,5.646240,0.547553,5.646240
1.7730,5.099004,5.646596,0.547553,5.646596
1.7740,5.099307,5.628689,0.529389,5.628689
1.7750,5.099556,5.599538,0.500000,5.599538
1.7760,5.099750,5.570422,0.470611,5.570422
1.7770,5.099889,5.552290,0.452447,5.552290
1.7780,5.099972,5.552408,0.452447,5.552408
1.7790,5.100000,5.570660,0.470611,5.570660
1.7800,5.099972,5.599962,0.500000,5.599962
1.7810,5.099889,5.629262,0.529389,5.629262
1.7820,5.099751,5.647245,0.547553,5.647245
1.7830,5.099557,5.647085,0.547553,5.647085
1.7840,5.099309,5.628696,0.529389,5.628696
1.7850,5.099006,5.599002,0.500000,5.599002
1.7860,5.098649,5.569297,0.470611,5.569297
1.7870,5.098239,5.550699,0.452447,5.550699
1.7880,5.097777,5.550181,0.452447,5.550181
1.7890,5.097262,5.567843,0.470611,5.567843
1.7900,5.096697,5.596795,0.500000,5.596795
1.7910,5.096082,5.625480,0.529389,5.625480
1.7920,5.095417,5.643084,0.547553,5.643084
1.7930,5.094704,5.642296,0.547553,5.642296
1.7940,5.093945,5.623280,0.529389,5.623280
1.7950,5.093140,5.592974,0.500000,5.592974
1.7960,5.092291,5.562904,0.470611,5.562904
1.7970,5.091398,5.543858,0.452447,5.543858
1.7980,5.090464,5.542956,0.452447,5.542956
1.7990,5.089490,5.560098,0.470611,5.560098
1.8000,5.088477,5.588564,0.500000,5.588564
1.8010,5.087428,5.616848,0.529389,5.616848
1.8020,5.086342,5.633898,0.547553,5.633898
1.8030,5.085223,5.632836,0.547553,5.632836
1.8040,5.084072,5.613439,0.529389,5.613439
1.8050,5.082890,5.583008,0.500000,5.583008
1.8060,5.081680,5.552264,0.470611,5.552264
1.8070,5.080443,5.532920,0.452447,5.532920
1.8080,5.079180,5.531677,0.452447,5.531677
1.8090,5.077894,5.548455,0.470611,5.548455
1.8100,5.076587,5.576584,0.500000,5.576584
1.8110,5.075260,5.604656,0.529389,5.604656
1.8120,5.073915,5.621424,0.547553,5.621424
1.8130,5.072553,5.620114,0.547553,5.620114
1.8140,5.071178,5.600541,0.529389,5.600541
1.8150,5.069790,5.569830,0.500000,5.569830
1.8160,5.068391,5.538981,0.470611,5.538981
1.8170,5.066983,5.519391,0.452447,5.519391
1.8180,5.065568,5.517942,0.452447,5.517942
1.8190,5.064147,5.534838,0.470611,5.534838
1.8200,5.062723,5.562623,0.500000,5.562623
1.8210,5.061296,5.590705,0.529389,5.590705
1.8220,5.059869,5.607470,0.547553,5.607470
1.8230,5.058443,5.606063,0.547553,5.606063
1.8240,5.057020,5.586411,0.529389,5.586411
1.8250,5.055600,5.555593,0.500000,5.555593
1.8260,5.054186,5.524779,0.470611,5.524779
1.8270,5.052779,5.505238,0.452447,5.505238
1.8280,5.051381,5.503806,0.452447,5.503806
1.8290,5.049992,5.520625,0.470611,5.520625
1.8300,5.048614,5.548565,0.500000,5.548565
1.8310,5.047249,5.576644,0.529389,5.576644
1.8320,5.045897,5.593448,0.547553,5.593448
1.8330,5.044559,5.592085,0.547553,5.592085
1.8340,5.043237,5.572599,0.529389,5.572599
1.8350,5.041932,5.541959,0.500000,5.541959
1.8360,5.040644,5.511258,0.470611,5.511258
1.8370,5.039374,5.491836,0.452447,5.491836
1.8380,5.038124,5.490569,0.452447,5.490569
1.8390,5.036894,5.507507,0.470611,5.507507
1.8400,5.035684,5.535721,0.500000,5.535721
1.8410,5.034496,5.563884,0.529389,5.563884
1.8420,5.033331,5.580875,0.547553,5.580875
1.8430,5.032187,5.579705,0.547553,5.579705
1.8440,5.031067,5.560452,0.529389,5.560452
1.8450,5.029970,5.529953,0.500000,5.529953
1.8460,5.028898,5.499555,0.470611,5.499555
1.8470,5.027850,5.480285,0.452447,5.480285
1.8480,5.026826,5.479304,0.452447,5.479304
1.8490,5.025827,5.496371,0.470611,5.496371
1.8500,5.024853,5.524854,0.500000,5.524854
1.8510,5.023905,5.553307,0.529389,5.553307
1.8520,5.022982,5.570528,0.547553,5.570528
1.8530,5.022084,5.569703,0.547553,5.569703
1.8540,5.021211,5.550449,0.529389,5.550449
1.8550,5.020364,5.520374,0.500000,5.520374
1.8560,5.019543,5.490167,0.470611,5.490167
1.8570,5.018746,5.471270,0.452447,5.471270
1.8580,5.017975,5.470460,0.452447,5.470460
1.8590,5.017229,5.487823,0.470611,5.487823
1.8600,5.016508,5.516556,0.500000,5.516556
1.8610,5.015811,5.545194,0.529389,5.545194
1.8620,5.015139,5.562629,0.547553,5.562629
1.8630,5.014490,5.562014,0.547553,5.562014
1.8640,5.013866,5.543201,0.529389,5.543201
1.8650,5.013265,5.513208,0.500000,5.513208
1.8660,5.012687,5.483234,0.470611,5.483234
1.8670,5.012132,5.464600,0.452447,5.464600
1.8680,5.011600,5.464132,0.452447,5.464132
1.8690,5.011089,5.481687,0.470611,5.481687
1.8700,5.010600,5.510517,0.500000,5.510517
1.8710,5.010133,5.539486,0.529389,5.539486
1.8720,5.009686,5.557296,0.547553,5.557296
1.8730,5.009260,5.556810,0.547553,5.556810
1.8740,5.008854,5.538257,0.529389,5.538257
1.8750,5.008468,5.508450,0.500000,5.508450
1.8760,5.008101,5.478724,0.470611,5.478724
1.8770,5.007752,5.460237,0.452447,5.460237
1.8780,5.007422,5.459870,0.452447,5.459870
1.8790,5.007109,5.477778,0.470611,5.477778
1.8800,5.006814,5.506805,0.500000,5.506805
1.8810,5.006536,5.535983,0.529389,5.535983
1.8820,5.006275,5.553829,0.547553,5.553829
1.8830,5.006030,5.553519,0.547553,5.553519
1.8840,5.005800,5.535233,0.529389,5.535233
1.8850,5.005586,5.505554,0.500000,5.505554
1.8860,5.005386,5.475979,0.470611,5.475979
1.8870,5.005201,5.457686,0.452447,5.457686
1.8880,5.005030,5.457500,0.452447,5.457500
1.8890,5.004873,5.475463,0.470611,5.475463
1.8900,5.004729,5.504783,0.500000,5.504783
1.8910,5.004597,5.534009,0.529389,5.534009
1.8920,5.004479,5.552037,0.547553,5.552037
1.8930,5.004372,5.551938,0.547553,5.551938
1.8940,5.004278,5.533634,0.529389,5.533634
1.8950,5.004195,5.504198,0.500000,5.504198
1.8960,5.004123,5.474733,0.470611,5.474733
1.8970,5.004062,5.456507,0.452447,5.456507
1.8980,5.004011,5.456442,0.452447,5.456442
1.8990,5.003971,5.474602,0.470611,5.474602
1.9000,5.003941,5.503999,0.500000,5.503999
1.9010,5.003920,5.533275,0.529389,5.533275
1.9020,5.003909,5.551542,0.547553,5.551542
1.9030,5.003907,5.551413,0.547553,5.551413
1.9040,5.003914,5.533331,0.529389,5.533331
1.9050,5.003930,5.503832,0.500000,5.503832
1.9060,5.003955,5.474550,0.470611,5.474550
1.9070,5.003987,5.456448,0.452447,5.456448
1.9080,5.004028,5.456482,0.452447,5.456482
1.9090,5.004077,5.474728,0.470611,5.474728
1.9100,5.004133,5.504093,0.500000,5.504093
1.9110,5.004197,5.533597,0.529389,5.533597
1.9120,5.004268,5.551729,0.547553,5.551729
1.9130,5.004347,5.551974,0.547553,5.551974
1.9140,5.004432,5.533707,0.529389,5.533707
1.9150,5.004525,5.504595,0.500000,5.504595
1.9160,5.004624,5.475227,0.470611,5.475227
1.9170,5.004730,5.457135,0.452447,5.457135
1.9180,5.004842,5.457304,0.452447,5.457304
1.9190,5.004961,5.475549,0.470611,5.475549
1.9200,5.005086,5.505103,0.500000,5.505103
1.9210,5.005218,5.534593,0.529389,5.534593
1.9220,5.005355,5.552861,0.547553,5.552861
1.9230,5.005499,5.553047,0.547553,5.553047
1.9240,5.005648,5.535110,0.529389,5.535110
1.9250,5.005804,5.505806,0.500000,5.505806
1.9260,5.005965,5.476581,0.470611,5.476581
1.9270,5.006131,5.458526,0.452447,5.458526
1.9280,5.006304,5.458725,0.452447,5.458725
1.9290,5.006481,5.477123,0.470611,5.477123
1.9300,5.006664,5.506649,0.500000,5.506649
1.9310,5.006853,5.536299,0.529389,5.536299
1.9320,5.007047,5.554638,0.547553,5.554638
1.9330,5.007245,5.554748,0.547553,5.554748
1.9340,5.007449,5.536796,0.529389,5.536796
1.9350,5.007658,5.507593,0.500000,5.507593
1.9360,5.007872,5.478458,0.470611,5.478458
1.9370,5.008091,5.460579,0.452447,5.460579
1.9380,5.008315,5.460810,0.452447,5.460810
1.9390,5.008543,5.479120,0.470611,5.479120
1.9400,5.008776,5.508801,0.500000,5.508801
1.9410,5.009014,5.538431,0.529389,5.538431
1.9420,5.009256,5.556794,0.547553,5.556794
1.9430,5.009503,5.557132,0.547553,5.557132
1.9440,5.009753,5.539232,0.529389,5.539232
1.9450,5.010008,5.510040,0.500000,5.510040
1.9460,5.010268,5.480951,0.470611,5.480951
1.9470,5.010531,5.463040,0.452447,5.463040
1.9480,5.010798,5.463203,0.452447,5.463203
1.9490,5.011069,5.481666,0.470611,5.481666
1.9500,5.011343,5.511376,0.500000,5.511376
1.9510,5.011622,5.541041,0.529389,5.541041
1.9520,5.011904,5.559462,0.547553,5.559462
1.9530,5.012189,5.559710,0.547553,5.559710
1.9540,5.012477,5.541897,0.529389,5.541897
1.9550,5.012769,5.512811,0.500000,5.512811
1.9560,5.013063,5.483651,0.470611,5.483651
1.9570,5.013361,5.465796,0.452447,5.465796
1.9580,5.013661,5.466109,0.452447,5.466109
1.9590,5.013963,5.484541,0.470611,5.484541
1.9600,5.014269,5.514230,0.500000,5.514230
1.9610,5.014576,5.543911,0.529389,5.543911
1.9620,5.014885,5.562506,0.547553,5.562506
1.9630,5.015197,5.562732,0.547553,5.562732
1.9640,5.015510,5.544909,0.529389,5.544909
1.9650,5.015825,5.515816,0.500000,5.515816
1.9660,5.016142,5.486757,0.470611,5.486757
1.9670,5.016459,5.468902,0.452447,5.468902
1.9680,5.016778,5.469233,0.452447,5.469233
1.9690,5.017098,5.487715,0.470611,5.487715
1.9700,5.017418,5.517446,0.500000,5.517446
1.9710,5.017739,5.547086,0.529389,5.547086
1.9720,5.018060,5.565553,0.547553,5.565553
1.9730,5.018381,5.565957,0.547553,5.565957
1.9740,5.018703,5.548106,0.529389,5.548106
1.9750,5.019024,5.519092,0.500000,5.519092
1.9760,5.019344,5.489969,0.470611,5.489969
1.9770,5.019664,5.472166,0.452447,5.472166
1.9780,5.019983,5.472405,0.452447,5.472405
1.9790,5.020300,5.490895,0.470611,5.490895
1.9800,5.020616,5.520635,0.500000,5.520635
1.9810,5.020931,5.550219,0.529389,5.550219
1.9820,5.021244,5.568791,0.547553,5.568791
1.9830,5.021555,5.569051,0.547553,5.569051
1.9840,5.021863,5.551204,0.529389,5.551204
1.9850,5.022169,5.522144,0.500000,5.522144
1.9860,5.022473,5.493092,0.470611,5.493092
1.9870,5.022773,5.475167,0.452447,5.475167
1.9880,5.023070,5.475484,0.452447,5.475484
1.9890,5.023364,5.493913,0.470611,5.493913
1.9900,5.023654,5.523606,0.500000,5.523606
1.9910,5.023940,5.553341,0.529389,5.553341
1.9920,5.024223,5.571779,0.547553,5.571779
1.9930,5.024500,5.572031,0.547553,5.572031
1.9940,5.024774,5.554072,0.529389,5.554072
1.9950,5.025042,5.525086,0.500000,5.525086
1.9960,5.025306,5.495938,0.470611,5.495938
1.9970,5.025564,5.478038,0.452447,5.478038
1.9980,5.025817,5.478265,0.452447,5.478265
1.9990,5.026064,5.496671,0.470611,5.496671
2.0000,5.026306,5.526334,0.500000,5.526334
2.0010,5.026541,5.555979,0.529389,5.555979
2.0020,5.026770,5.574329,0.547553,5.574329
2.0030,5.026992,5.574545,0.547553,5.574545
2.0040,5.027208,5.556608,0.529389,5.556608
2.0050,5.027418,5.527406,0.500000,5.527406
2.0060,5.027620,5.498187,0.470611,5.498187
2.0070,5.027814,5.480253,0.452447,5.480253
2.0080,5.028002,5.480426,0.452447,5.480426
2.0090,5.028182,5.498809,0.470611,5.498809
2.0100,5.028354,5.528334,0.500000,5.528334
2.0110,5.028519,5.557912,0.529389,5.557912
2.0120,5.028675,5.576218,0.547553,5.576218
2.0130,5.028823,5.576375,0.547553,5.576375
2.0140,5.028963,5.558351,0.529389,5.558351
2.0150,5.029095,5.529134,0.500000,5.529134
2.0160,5.029218,5.499725,0.470611,5.499725
2.0170,5.029332,5.481789,0.452447,5.481789
2.0180,5.029438,5.481858,0.452447,5.481858
2.0190,5.029534,5.500160,0.470611,5.500160
2.0200,5.029622,5.529607,0.500000,5.529607
2.0210,5.029701,5.559062,0.529389,5.559062
2.0220,5.029771,5.577308,0.547553,5.577308
2.0230,5.029831,5.577296,0.547553,5.577296
2.0240,5.029883,5.559381,0.529389,5.559381
2.0250,5.029925,5.529966,0.500000,5.529966
2.0260,5.029957,5.500529,0.470611,5.500529
2.0270,5.029981,5.482355,0.452447,5.482355
2.0280,5.029995,5.482415,0.452447,5.482415
2.0290,5.029999,5.500572,0.470611,5.500572
2.0300,5.029995,5.530006,0.500000,5.530006
2.0310,5.029981,5.559426,0.529389,5.559426
2.0320,5.029957,5.577530,0.547553,5.577530
2.0330,5.029925,5.577491,0.547553,5.577491
2.0340,5.029883,5.559356,0.529389,5.559356
2.0350,5.029831,5.529798,0.500000,5.529798
2.0360,5.029771,5.500313,0.470611,5.500313
2.0370,5.029701,5.482092,0.452447,5.482092
2.0380,5.029622,5.481980,0.452447,5.481980
2.0390,5.029534,5.500170,0.470611,5.500170
2.0400,5.029438,5.529410,0.500000,5.529410
2.0410,5.029332,5.558681,0.529389,5.558681
2.0420,5.029218,5.576768,0.547553,5.576768
2.0430,5.029095,5.576706,0.547553,5.576706
2.0440,5.028963,5.558298,0.529389,5.558298
2.0450,5.028823,5.528812,0.500000,5.528812
2.0460,5.028675,5.499239,0.470611,5.499239
2.0470,5.028519,5.480948,0.452447,5.480948
2.0480,5.028354,5.480767,0.452447,5.480767
2.0490,5.028182,5.498750,0.470611,5.498750
2.0500,5.028002,5.528093,0.500000,5.528093
2.0510,5.027814,5.557275,0.529389,5.557275
2.0520,5.027620,5.575185,0.547553,5.575185
2.0530,5.027417,5.574905,0.547553,5.574905
2.0540,5.027208,5.556631,0.529389,5.556631
2.0550,5.026992,5.526974,0.500000,5.526974
2.0560,5.026770,5.497393,0.470611,5.497393
2.0570,5.026541,5.478970,0.452447,5.478970
2.0580,5.026305,5.478700,0.452447,5.478700
2.0590,5.026064,5.496670,0.470611,5.496670
2.0600,5.025817,5.525760,0.500000,5.525760
2.0610,5.025564,5.554972,0.529389,5.554972
2.0620,5.025306,5.572883,0.547553,5.572883
2.0630,5.025042,5.572645,0.547553,5.572645
2.0640,5.024773,5.554097,0.529389,5.554097
2.0650,5.024500,5.524446,0.500000,5.524446
2.0660,5.024222,5.494777,0.470611,5.494777
2.0670,5.023940,5.476374,0.452447,5.476374
2.0680,5.023654,5.476137,0.452447,5.476137
2.0690,5.023364,5.493933,0.470611,5.493933
2.0700,5.023070,5.523042,0.500000,5.523042
2.0710,5.022773,5.552154,0.529389,5.552154
2.0720,5.022472,5.570032,0.547553,5.570032
2.0730,5.022169,5.569666,0.547553,5.569666
2.0740,5.021863,5.551299,0.529389,5.551299
2.0750,5.021554,5.521523,0.500000,5.521523
2.0760,5.021243,5.491829,0.470611,5.491829
2.0770,5.020930,5.473359,0.452447,5.473359
2.0780,5.020615,5.473018,0.452447,5.473018
2.0790,5.020299,5.490962,0.470611,5.490962
2.0800,5.019981,5.520031,0.500000,5.520031
2.0810,5.019662,5.549064,0.529389,5.549064
2.0820,5.019342,5.566894,0.547553,5.566894
2.0830,5.019021,5.566571,0.547553,5.566571
2.0840,5.018700,5.548081,0.529389,5.548081
2.0850,5.018378,5.518374,0.500000,5.518374
2.0860,5.018057,5.488650,0.470611,5.488650
2.0870,5.017735,5.470150,0.452447,5.470150
2.0880,5.017414,5.469815,0.452447,5.469815
2.0890,5.017093,5.487722,0.470611,5.487722
2.0900,5.016773,5.516839,0.500000,5.516839
2.0910,5.016454,5.545856,0.529389,5.545856
2.0920,5.016136,5.563693,0.547553,5.563693
2.0930,5.015819,5.563459,0.547553,5.563459
2.0940,5.015503,5.544857,0.529389,5.544857
2.0950,5.015189,5.515164,0.500000,5.515164
2.0960,5.014876,5.485490,0.470611,5.485490
2.0970,5.014566,5.467034,0.452447,5.467034
2.0980,5.014257,5.466707,0.452447,5.466707
2.0990,5.013951,5.484553,0.470611,5.484553
2.1000,5.013647,5.513689,0.500000,5.513689
2.1010,5.013346,5.542731,0.529389,5.542731
2.1020,5.013047,5.560570,0.547553,5.560570
2.1030,5.012750,5.560281,0.547553,5.560281
2.1040,5.012457,5.541745,0.529389,5.541745
2.1050,5.012166,5.512167,0.500000,5.512167
2.1060,5.011879,5.482507,0.470611,5.482507
2.1070,5.011595,5.464050,0.452447,5.464050
2.1080,5.011314,5.463737,0.452447,5.463737
2.1090,5.011036,5.481646,0.470611,5.481646
2.1100,5.010762,5.510853,0.500000,5.510853
2.1110,5.010491,5.539944,0.529389,5.539944
2.1120,5.010224,5.557783,0.547553,5.557783
2.1130,5.009961,5.557472,0.547553,5.557472
2.1140,5.009701,5.539069,0.529389,5.539069
2.1150,5.009446,5.509532,0.500000,5.509532
2.1160,5.009194,5.479767,0.470611,5.479767
2.1170,5.008946,5.461420,0.452447,5.461420
2.1180,5.008702,5.461140,0.452447,5.461140
2.1190,5.008462,5.479026,0.470611,5.479026
2.1200,5.008226,5.508220,0.500000,5.508220
2.1210,5.007994,5.537319,0.529389,5.537319
2.1220,5.007766,5.555255,0.547553,5.555255
2.1230,5.007543,5.555171,0.547553,5.555171
2.1240,5.007323,5.536710,0.529389,5.536710
2.1250,5.007108,5.507123,0.500000,5.507123
2.1260,5.006897,5.477457,0.470611,5.477457
2.1270,5.006690,5.459124,0.452447,5.459124
2.1280,5.006487,5.458948,0.452447,5.458948
2.1290,5.006288,5.476934,0.470611,5.476934
2.1300,5.006094,5.506067,0.500000,5.506067
2.1310,5.005904,5.535228,0.529389,5.535228
2.1320,5.005717,5.553354,0.547553,5.553354
2.1330,5.005535,5.553129,0.547553,5.553129
2.1340,5.005358,5.534753,0.529389,5.534753
2.1350,5.005184,5.505210,0.500000,5.505210
2.1360,5.005014,5.475645,0.470611,5.475645
2.1370,5.004849,5.457260,0.452447,5.457260
2.1380,5.004687,5.457097,0.452447,5.457097
2.1390,5.004529,5.475141,0.470611,5.475141
2.1400,5.004376,5.504407,0.500000,5.504407
2.1410,5.004226,5.533582,0.529389,5.533582
2.1420,5.004080,5.551632,0.547553,5.551632
2.1430,5.003938,5.551517,0.547553,5.551517
2.1440,5.003799,5.533159,0.529389,5.533159
2.1450,5.003664,5.503641,0.500000,5.503641
2.1460,5.003533,5.474202,0.470611,5.474202
2.1470,5.003406,5.455804,0.452447,5.455804
2.1480,5.003282,5.455712,0.452447,5.455712
2.1490,5.003162,5.473779,0.470611,5.473779
2.1500,5.003045,5.503066,0.500000,5.503066
2.1510,5.002932,5.532387,0.529389,5.532387
2.1520,5.002822,5.550368,0.547553,5.550368
2.1530,5.002715,5.550300,0.547553,5.550300
2.1540,5.002611,5.531997,0.529389,5.531997
2.1550,5.002511,5.502480,0.500000,5.502480
2.1560,5.002413,5.472982,0.470611,5.472982
2.1570,5.002319,5.454795,0.452447,5.454795
2.1580,5.002228,5.454674,0.452447,5.454674
2.1590,5.002139,5.472772,0.470611,5.472772
2.1600,5.002054,5.502111,0.500000,5.502111
2.1610,5.001971,5.531336,0.529389,5.531336
2.1620,5.001891,5.549497,0.547553,5.549497
2.1630,5.001814,5.549344,0.547553,5.549344
2.1640,5.001739,5.531130,0.529389,5.531130
2.1650,5.001667,5.501599,0.500000,5.501599
2.1660,5.001598,5.472204,0.470611,5.472204
2.1670,5.001530,5.454019,0.452447,5.454019
2.1680,5.001466,5.453858,0.452447,5.453858
2.1690,5.001403,5.472062,0.470611,5.472062
2.1700,5.001343,5.501315,0.500000,5.501315
2.1710,5.001285,5.530668,0.529389,5.530668
2.1720,5.001229,5.548722,0.547553,5.548722
2.1730,5.001175,5.548641,0.547553,5.548641
2.1740,5.001123,5.530504,0.529389,5.530504
2.1750,5.001073,5.501016,0.500000,5.501016
2.1760,5.001025,5.471639,0.470611,5.471639
2.1770,5.000979,5.453506,0.452447,5.453506
2.1780,5.000935,5.453374,0.452447,5.453374
2.1790,5.000892,5.471449,0.470611,5.471449
2.1800,5.000851,5.500835,0.500000,5.500835
2.1810,5.000812,5.530222,0.529389,5.530222
2.1820,5.000774,5.548396,0.547553,5.548396
2.1830,5.000738,5.548343,0.547553,5.548343
2.1840,5.000703,5.530187,0.529389,5.530187
2.1850,5.000669,5.500648,0.500000,5.500648
2.1860,5.000637,5.471213,0.470611,5.471213
2.1870,5.000607,5.453084,0.452447,5.453084
2.1880,5.000578,5.452991,0.452447,5.452991
2.1890,5.000549,5.471135,0.470611,5.471135
2.1900,5.000523,5.500501,0.500000,5.500501
2.1910,5.000497,5.529912,0.529389,5.529912
2.1920,5.000472,5.547950,0.547553,5.547950
2.1930,5.000449,5.548035,0.547553,5.548035
2.1940,5.000426,5.529871,0.529389,5.529871
2.1950,5.000405,5.500489,0.500000,5.500489
2.1960,5.000384,5.470992,0.470611,5.470992
2.1970,5.000365,5.452785,0.452447,5.452785
2.1980,5.000346,5.452820,0.452447,5.452820
2.1990,5.000328,5.470920,0.470611,5.470920
2.2000,5.000311,5.500334,0.500000,5.500334
2.2010,5.000295,5.529665,0.529389,5.529665
2.2020,5.000279,5.547854,0.547553,5.547854
2.2030,5.000265,5.547827,0.547553,5.547827
2.2040,5.000251,5.529633,0.529389,5.529633
2.2050,5.000237,5.500229,0.500000,5.500229
2.2060,5.000224,5.470732,0.470611,5.470732
2.2070,5.000212,5.452613,0.452447,5.452613
2.2080,5.000201,5.452664,0.452447,5.452664
2.2090,5.000190,5.470788,0.470611,5.470788
2.2100,5.000179,5.500153,0.500000,5.500153
2.2110,5.000170,5.529533,0.529389,5.529533
2.2120,5.000160,5.547685,0.547553,5.547685
2.2130,5.000151,5.547708,0.547553,5.547708
2.2140,5.000143,5.529524,0.529389,5.529524
2.2150,5.000135,5.500149,0.500000,5.500149
2.2160,5.000127,5.470725,0.470611,5.470725
2.2170,5.000120,5.452548,0.452447,5.452548
2.2180,5.000113,5.452564,0.452447,5.452564
2.2190,5.000107,5.470648,0.470611,5.470648
2.2200,5.000100,5.500106,0.500000,5.500106
2.2210,5.000095,5.529507,0.529389,5.529507
2.2220,5.000089,5.547648,0.547553,5.547648
2.2230,5.000084,5.547593,0.547553,5.547593
2.2240,5.000079,5.529451,0.529389,5.529451
2.2250,5.000074,5.500064,0.500000,5.500064
2.2260,5.000070,5.470805,0.470611,5.470805
2.2270,5.000066,5.452532,0.452447,5.452532
2.2280,5.000062,5.452509,0.452447,5.452509
2.2290,5.000058,5.470728,0.470611,5.470728
2.2300,5.000054,5.500172,0.500000,5.500172
2.2310,5.000051,5.529415,0.529389,5.529415
2.2320,5.000048,5.547566,0.547553,5.547566
2.2330,5.000045,5.547641,0.547553,5.547641
2.2340,5.000042,5.529510,0.529389,5.529510
2.2350,5.000040,5.500007,0.500000,5.500007
2.2360,5.000037,5.470613,0.470611,5.470613
2.2370,5.000035,5.452449,0.452447,5.452449
2.2380,5.000033,5.452503,0.452447,5.452503
2.2390,5.000031,5.470602,0.470611,5.470602
2.2400,5.000029,5.499996,0.500000,5.499996
2.2410,5.000027,5.529377,0.529389,5.529377
2.2420,5.000025,5.547514,0.547553,5.547514
2.2430,5.000023,5.547621,0.547553,5.547621
2.2440,5.000022,5.529355,0.529389,5.529355
2.2450,5.000020,5.500041,0.500000,5.500041
2.2460,5.000019,5.470646,0.470611,5.470646
2.2470,5.000018,5.452541,0.452447,5.452541
2.2480,5.000017,5.452419,0.452447,5.452419
2.2490,5.000016,5.470597,0.470611,5.470597
2.2500,5.000015,5.499968,0.500000,5.499968
2.2510,5.000014,5.529465,0.529389,5.529465
2.2520,5.000013,5.547557,0.547553,5.547557
2.2530,5.000012,5.547597,0.547553,5.547597
2.2540,5.000011,5.529380,0.529389,5.529380
2.2550,5.000010,5.500024,0.500000,5.500024
2.2560,5.000010,5.470725,0.470611,5.470725
2.2570,5.000009,5.452475,0.452447,5.452475
2.2580,5.000008,5.452424,0.452447,5.452424
2.2590,5.000008,5.470608,0.470611,5.470608
2.2600,5.000007,5.499976,0.500000,5.499976
2.2610,5.000007,5.529436,0.529389,5.529436
2.2620,5.000006,5.547481,0.547553,5.547481
2.2630,5.000006,5.547486,0.547553,5.547486
2.2640,5.000005,5.529380,0.529389,5.529380
2.2650,5.000005,5.500017,0.500000,5.500017
2.2660,5.000005,5.470612,0.470611,5.470612
2.2670,5.000004,5.452482,0.452447,5.452482
2.2680,5.000004,5.452467,0.452447,5.452467
2.2690,5.000004,5.470559,0.470611,5.470559
2.2700,5.000003,5.499992,0.500000,5.499992
2.2710,5.000003,5.529460,0.529389,5.529460
2.2720,5.000003,5.547580,0.547553,5.547580
2.2730,5.000003,5.547593,0.547553,5.547593
2.2740,5.000003,5.529516,0.529389,5.529516
2.2750,5.000002,5.500066,0.500000,5.500066
2.2760,5.000002,5.470675,0.470611,5.470675
2.2770,5.000002,5.452479,0.452447,5.452479
2.2780,5.000002,5.452405,0.452447,5.452405
2.2790,5.000002,5.470576,0.470611,5.470576
2.2800,5.000002,5.500001,0.500000,5.500001
2.2810,5.000001,5.529449,0.529389,5.529449
2.2820,5.000001,5.547504,0.547553,5.547504
2.2830,5.000001,5.547599,0.547553,5.547599
2.2840,5.000001,5.529450,0.529389,5.529450
2.2850,5.000001,5.499904,0.500000,5.499904
2.2860,5.000001,5.470671,0.470611,5.470671
2.2870,5.000001,5.452413,0.452447,5.452413
2.2880,5.000001,5.452469,0.452447,5.452469
2.2890,5.000001,5.470615,0.470611,5.470615
2.2900,5.000001,5.500056,0.500000,5.500056
2.2910,5.000001,5.529357,0.529389,5.529357
2.2920,5.000001,5.547569,0.547553,5.547569
2.2930,5.000001,5.547526,0.547553,5.547526
2.2940,5.000001,5.529372,0.529389,5.529372
2.2950,5.000000,5.499966,0.500000,5.499966
2.2960,5.000000,5.470490,0.470611,5.470490
2.2970,5.000000,5.452472,0.452447,5.452472
2.2980,5.000000,5.452400,0.452447,5.452400
2.2990,5.000000,5.470546,0.470611,5.470546
2.3000,5.000000,5.499963,0.500000,5.499963
2.3010,5.000000,5.529384,0.529389,5.529384
2.3020,5.000000,5.547597,0.547553,5.547597
2.3030,5.000000,5.547533,0.547553,5.547533
2.3040,5.000000,5.529357,0.529389,5.529357
2.3050,5.000000,5.500035,0.500000,5.500035
2.3060,5.000000,5.470593,0.470611,5.470593
2.3070,5.000000,5.452406,0.452447,5.452406
2.3080,5.000000,5.452527,0.452447,5.452527
2.3090,5.000000,5.470615,0.470611,5.470615
2.3100,5.000000,5.499995,0.500000,5.499995
2.3110,5.000000,5.529378,0.529389,5.529378
2.3120,5.000000,5.547487,0.547553,5.547487
2.3130,5.000000,5.547504,0.547553,5.547504
2.3140,5.000000,5.529421,0.529389,5.529421
2.3150,5.000000,5.500022,0.500000,5.500022
2.3160,5.000000,5.470640,0.470611,5.470640
2.3170,5.000000,5.452410,0.452447,5.452410
2.3180,5.000000,5.452403,0.452447,5.452403
2.3190,5.000000,5.470667,0.470611,5.470667
2.3200,5.000000,5.500022,0.500000,5.500022
2.3210,5.000000,5.529393,0.529389,5.529393
2.3220,5.000000,5.547596,0.547553,5.547596
2.3230,5.000000,5.547552,0.547553,5.547552
2.3240,5.000000,5.529407,0.529389,5.529407
2.3250,5.000000,5.500000,0.500000,5.500000
2.3260,5.000000,5.470565,0.470611,5.470565
2.3270,5.000000,5.452418,0.452447,5.452418
2.3280,5.000000,5.452430,0.452447,5.452430
2.3290,5.000000,5.470543,0.470611,5.470543
2.3300,5.000000,5.499989,0.500000,5.499989
2.3310,5.000000,5.529464,0.529389,5.529464
2.3320,5.000000,5.547508,0.547553,5.547508
2.3330,5.000000,5.547605,0.547553,5.547605
2.3340,5.000000,5.529414,0.529389,5.529414
2.3350,5.000000,5.500032,0.500000,5.500032
2.3360,5.000000,5.470619,0.470611,5.470619
2.3370,5.000000,5.452389,0.452447,5.452389
2.3380,5.000000,5.452448,0.452447,5.452448
2.3390,5.000000,5.470620,0.470611,5.470620
2.3400,5.000000,5.499983,0.500000,5.499983
2.3410,5.000000,5.529358,0.529389,5.529358
2.3420,5.000000,5.547517,0.547553,5.547517
2.3430,5.000000,5.547560,0.547553,5.547560
2.3440,5.000000,5.529358,0.529389,5.529358
2.3450,5.000000,5.499999,0.500000,5.499999
2.3460,5.000000,5.470628,0.470611,5.470628
2.3470,5.000000,5.452450,0.452447,5.452450
2.3480,5.000000,5.452423,0.452447,5.452423
2.3490,5.000000,5.470562,0.470611,5.470562
2.3500,5.000000,5.500031,0.500000,5.500031
2.3510,5.000000,5.529381,0.529389,5.529381
2.3520,5.000000,5.547514,0.547553,5.547514
2.3530,5.000000,5.547519,0.547553,5.547519
2.3540,5.000000,5.529510,0.529389,5.529510
2.3550,5.000000,5.500011,0.500000,5.500011
2.3560,5.000000,5.470586,0.470611,5.470586
2.3570,5.000000,5.452465,0.452447,5.452465
2.3580,5.000000,5.452443,0.452447,5.452443
2.3590,5.000000,5.470673,0.470611,5.470673
2.3600,5.000000,5.500080,0.500000,5.500080
2.3610,5.000000,5.529406,0.529389,5.529406
2.3620,5.000000,5.547553,0.547553,5.547553
2.3630,5.000000,5.547575,0.547553,5.547575
2.3640,5.000000,5.529395,0.529389,5.529395
2.3650,5.000000,5.500034,0.500000,5.500034
2.3660,5.000000,5.470605,0.470611,5.470605
2.3670,5.000000,5.452423,0.452447,5.452423
2.3680,5.000000,5.452511,0.452447,5.452511
2.3690,5.000000,5.470689,0.470611,5.470689
2.3700,5.000000,5.500033,0.500000,5.500033
2.3710,5.000000,5.529357,0.529389,5.529357
2.3720,5.000000,5.547517,0.547553,5.547517
2.3730,5.000000,5.547540,0.547553,5.547540
2.3740,5.000000,5.529329,0.529389,5.529329
2.3750,5.000000,5.499992,0.500000,5.499992
2.3760,5.000000,5.470653,0.470611,5.470653
2.3770,5.000000,5.452433,0.452447,5.452433
2.3780,5.000000,5.452431,0.452447,5.452431
2.3790,5.000000,5.470620,0.470611,5.470620
2.3800,5.000000,5.499982,0.500000,5.499982
2.3810,5.000000,5.529429,0.529389,5.529429
2.3820,5.000000,5.547606,0.547553,5.547606
2.3830,5.000000,5.547592,0.547553,5.547592
2.3840,5.000000,5.529451,0.529389,5.529451
2.3850,5.000000,5.499972,0.500000,5.499972
2.3860,5.000000,5.470570,0.470611,5.470570
2.3870,5.000000,5.452414,0.452447,5.452414
2.3880,5.000000,5.452461,0.452447,5.452461
2.3890,5.000000,5.470549,0.470611,5.470549
2.3900,5.000000,5.500055,0.500000,5.500055
2.3910,5.000000,5.529368,0.529389,5.529368
2.3920,5.000000,5.547525,0.547553,5.547525
2.3930,5.000000,5.547613,0.547553,5.547613
2.3940,5.000000,5.529411,0.529389,5.529411
2.3950,5.000000,5.499933,0.500000,5.499933
2.3960,5.000000,5.470518,0.470611,5.470518
2.3970,5.000000,5.452482,0.452447,5.452482
2.3980,5.000000,5.452401,0.452447,5.452401
2.3990,5.000000,5.470640,0.470611,5.470640
2.4000,5.000000,5.500037,0.500000,5.500037
2.4010,5.000000,5.529413,0.529389,5.529413
2.4020,5.000000,5.547491,0.547553,5.547491
2.4030,5.000000,5.547587,0.547553,5.547587
2.4040,5.000000,5.529254,0.529389,5.529254
2.4050,5.000000,5.500005,0.500000,5.500005
2.4060,5.000000,5.470528,0.470611,5.470528
2.4070,5.000000,5.452486,0.452447,5.452486
2.4080,5.000000,5.452454,0.452447,5.452454
2.4090,5.000000,5.470577,0.470611,5.470577
2.4100,5.000000,5.500087,0.500000,5.500087
2.4110,5.000000,5.529376,0.529389,5.529376
2.4120,5.000000,5.547581,0.547553,5.547581
2.4130,5.000000,5.547557,0.547553,5.547557
2.4140,5.000000,5.529422,0.529389,5.529422
2.4150,5.000000,5.499996,0.500000,5.499996
2.4160,5.000000,5.470577,0.470611,5.470577
2.4170,5.000000,5.452531,0.452447,5.452531
2.4180,5.000000,5.452431,0.452447,5.452431
2.4190,5.000000,5.470621,0.470611,5.470621
2.4200,5.000000,5.500012,0.500000,5.500012
2.4210,5.000000,5.529379,0.529389,5.529379
2.4220,5.000000,5.547592,0.547553,5.547592
2.4230,5.000000,5.547536,0.547553,5.547536
2.4240,5.000000,5.529353,0.529389,5.529353
2.4250,5.000000,5.499990,0.500000,5.499990
2.4260,5.000000,5.470660,0.470611,5.470660
2.4270,5.000000,5.452500,0.452447,5.452500
2.4280,5.000000,5.452430,0.452447,5.452430
2.4290,5.000000,5.470631,0.470611,5.470631
2.4300,5.000000,5.499930,0.500000,5.499930
2.4310,5.000000,5.529438,0.529389,5.529438
2.4320,5.000000,5.547483,0.547553,5.547483
2.4330,5.000000,5.547515,0.547553,5.547515
2.4340,5.000000,5.529397,0.529389,5.529397
2.4350,5.000000,5.499988,0.500000,5.499988
2.4360,5.000000,5.470629,0.470611,5.470629
2.4370,5.000000,5.452427,0.452447,5.452427
2.4380,5.000000,5.452345,0.452447,5.452345
2.4390,5.000000,5.470538,0.470611,5.470538
2.4400,5.000000,5.500049,0.500000,5.500049
2.4410,5.000000,5.529448,0.529389,5.529448
2.4420,5.000000,5.547606,0.547553,5.547606
2.4430,5.000000,5.547528,0.547553,5.547528
2.4440,5.000000,5.529414,0.529389,5.529414
2.4450,5.000000,5.500017,0.500000,5.500017
2.4460,5.000000,5.470591,0.470611,5.470591
2.4470,5.000000,5.452464,0.452447,5.452464
2.4480,5.000000,5.452474,0.452447,5.452474
2.4490,5.000000,5.470612,0.470611,5.470612
2.4500,5.000000,5.499999,0.500000,5.499999
2.4510,5.000000,5.529342,0.529389,5.529342
2.4520,5.000000,5.547492,0.547553,5.547492
2.4530,5.000000,5.547546,0.547553,5.547546
2.4540,5.000000,5.529408,0.529389,5.529408
2.4550,5.000000,5.500100,0.500000,5.500100
2.4560,5.000000,5.470616,0.470611,5.470616
2.4570,5.000000,5.452496,0.452447,5.452496
2.4580,5.000000,5.452482,0.452447,5.452482
2.4590,5.000000,5.470629,0.470611,5.470629
2.4600,5.000000,5.499999,0.500000,5.499999
2.4610,5.000000,5.529400,0.529389,5.529400
2.4620,5.000000,5.547565,0.547553,5.547565
2.4630,5.000000,5.547506,0.547553,5.547506
2.4640,5.000000,5.529375,0.529389,5.529375
2.4650,5.000000,5.499969,0.500000,5.499969
2.4660,5.000000,5.470708,0.470611,5.470708
2.4670,5.000000,5.452476,0.452447,5.452476
2.4680,5.000000,5.452407,0.452447,5.452407
2.4690,5.000000,5.470599,0.470611,5.470599
2.4700,5.000000,5.500063,0.500000,5.500063
2.4710,5.000000,5.529452,0.529389,5.529452
2.4720,5.000000,5.547542,0.547553,5.547542
2.4730,5.000000,5.547512,0.547553,5.547512
2.4740,5.000000,5.529370,0.529389,5.529370
2.4750,5.000000,5.499991,0.500000,5.499991
2.4760,5.000000,5.470570,0.470611,5.470570
2.4770,5.000000,5.452396,0.452447,5.452396
2.4780,5.000000,5.452556,0.452447,5.452556
2.4790,5.000000,5.470621,0.470611,5.470621
2.4800,5.000000,5.499973,0.500000,5.499973
2.4810,5.000000,5.529330,0.529389,5.529330
2.4820,5.000000,5.547586,0.547553,5.547586
2.4830,5.000000,5.547497,0.547553,5.547497
2.4840,5.000000,5.529357,0.529389,5.529357
2.4850,5.000000,5.500024,0.500000,5.500024
2.4860,5.000000,5.470594,0.470611,5.470594
2.4870,5.000000,5.452423,0.452447,5.452423
2.4880,5.000000,5.452444,0.452447,5.452444
2.4890,5.000000,5.470688,0.470611,5.470688
2.4900,5.000000,5.499992,0.500000,5.499992
2.4910,5.000000,5.529340,0.529389,5.529340
2.4920,5.000000,5.547535,0.547553,5.547535
2.4930,5.000000,5.547457,0.547553,5.547457
2.4940,5.000000,5.529413,0.529389,5.529413
2.4950,5.000000,5.499988,0.500000,5.499988
2.4960,5.000000,5.470544,0.470611,5.470544
2.4970,5.000000,5.452490,0.452447,5.452490
2.4980,5.000000,5.452576,0.452447,5.452576
2.4990,5.000000,5.470509,0.470611,5.470509
2.5000,5.000000,5.500021,0.500000,5.500021
2.5010,5.000000,5.529449,0.529389,5.529449
2.5020,5.000000,5.547554,0.547553,5.547554
2.5030,5.000000,5.547552,0.547553,5.547552
2.5040,5.000000,5.529358,0.529389,5.529358
2.5050,5.000000,5.499932,0.500000,5.499932
2.5060,5.000000,5.470625,0.470611,5.470625
2.5070,5.006218,5.458686,0.452447,5.458686
2.5080,5.006571,5.459021,0.452447,5.459021
2.5090,5.006941,5.477506,0.470611,5.477506
2.5100,5.007327,5.507339,0.500000,5.507339
2.5110,5.007730,5.537096,0.529389,5.537096
2.5120,5.008152,5.555720,0.547553,5.555720
2.5130,5.008591,5.556180,0.547553,5.556180
2.5140,5.009049,5.538416,0.529389,5.538416
2.5150,5.009526,5.509582,0.500000,5.509582
2.5160,5.010023,5.480687,0.470611,5.480687
2.5170,5.010540,5.462915,0.452447,5.462915
2.5180,5.011077,5.463452,0.452447,5.463452
2.5190,5.011635,5.482252,0.470611,5.482252
2.5200,5.012215,5.512110,0.500000,5.512110
2.5210,5.012816,5.542152,0.529389,5.542152
2.5220,5.013440,5.561048,0.547553,5.561048
2.5230,5.014086,5.561730,0.547553,5.561730
2.5240,5.014754,5.544145,0.529389,5.544145
2.5250,5.015446,5.515469,0.500000,5.515469
2.5260,5.016162,5.486685,0.470611,5.486685
2.5270,5.016901,5.469394,0.452447,5.469394
2.5280,5.017664,5.470086,0.452447,5.470086
2.5290,5.018452,5.489051,0.470611,5.489051
2.5300,5.019263,5.519299,0.500000,5.519299
2.5310,5.020100,5.549502,0.529389,5.549502
2.5320,5.020961,5.568567,0.547553,5.568567
2.5330,5.021847,5.569356,0.547553,5.569356
2.5340,5.022757,5.552159,0.529389,5.552159
2.5350,5.023692,5.523734,0.500000,5.523734
2.5360,5.024652,5.495325,0.470611,5.495325
2.5370,5.025637,5.478093,0.452447,5.478093
2.5380,5.026646,5.479103,0.452447,5.479103
2.5390,5.027680,5.498342,0.470611,5.498342
2.5400,5.028738,5.528720,0.500000,5.528720
2.5410,5.029819,5.559232,0.529389,5.559232
2.5420,5.030924,5.578435,0.547553,5.578435
2.5430,5.032053,5.579612,0.547553,5.579612
2.5440,5.033203,5.562596,0.529389,5.562596
2.5450,5.034377,5.534325,0.500000,5.534325
2.5460,5.035571,5.506156,0.470611,5.506156
2.5470,5.036787,5.489187,0.452447,5.489187
2.5480,5.038024,5.490501,0.452447,5.490501
2.5490,5.039280,5.509830,0.470611,5.509830
2.5500,5.040555,5.540531,0.500000,5.540531
2.5510,5.041848,5.571183,0.529389,5.571183
2.5520,5.043158,5.590762,0.547553,5.590762
2.5530,5.044485,5.591999,0.547553,5.591999
2.5540,5.045827,5.575158,0.529389,5.575158
2.5550,5.047183,5.547157,0.500000,5.547157
2.5560,5.048553,5.519175,0.470611,5.519175
2.5570,5.049934,5.502422,0.452447,5.502422
2.5580,5.051327,5.503761,0.452447,5.503761
2.5590,5.052728,5.523310,0.470611,5.523310
2.5600,5.054138,5.554135,0.500000,5.554135
2.5610,5.055555,5.584940,0.529389,5.584940
2.5620,5.056977,5.604492,0.547553,5.604492
2.5630,5.058404,5.605881,0.547553,5.605881
2.5640,5.059832,5.589218,0.529389,5.589218
2.5650,5.061262,5.561286,0.500000,5.561286
2.5660,5.062690,5.533303,0.470611,5.533303
2.5670,5.064117,5.516548,0.452447,5.516548
2.5680,5.065540,5.518021,0.452447,5.518021
2.5690,5.066956,5.537680,0.470611,5.537680
2.5700,5.068366,5.568355,0.500000,5.568355
2.5710,5.069767,5.599149,0.529389,5.599149
2.5720,5.071156,5.618752,0.547553,5.618752
2.5730,5.072533,5.620089,0.547553,5.620089
2.5740,5.073896,5.603295,0.529389,5.603295
2.5750,5.075242,5.575262,0.500000,5.575262
2.5760,5.076570,5.547141,0.470611,5.547141
2.5770,5.077879,5.530322,0.452447,5.530322
2.5780,5.079166,5.531716,0.452447,5.531716
2.5790,5.080429,5.551010,0.470611,5.551010
2.5800,5.081667,5.581666,0.500000,5.581666
2.5810,5.082879,5.612260,0.529389,5.612260
2.5820,5.084061,5.631597,0.547553,5.631597
2.5830,5.085213,5.632744,0.547553,5.632744
2.5840,5.086333,5.615679,0.529389,5.615679
2.5850,5.087419,5.587416,0.500000,5.587416
2.5860,5.088469,5.559075,0.470611,5.559075
2.5870,5.089483,5.541935,0.452447,5.541935
2.5880,5.090457,5.542847,0.452447,5.542847
2.5890,5.091392,5.561980,0.470611,5.561980
2.5900,5.092285,5.592299,0.500000,5.592299
2.5910,5.093135,5.622593,0.529389,5.622593
2.5920,5.093940,5.641510,0.547553,5.641510
2.5930,5.094700,5.642285,0.547553,5.642285
2.5940,5.095413,5.624877,0.529389,5.624877
2.5950,5.096078,5.596011,0.500000,5.596011
2.5960,5.096694,5.567296,0.470611,5.567296
2.5970,5.097260,5.549668,0.452447,5.549668
2.5980,5.097774,5.550204,0.452447,5.550204
2.5990,5.098237,5.568889,0.470611,5.568889
2.6000,5.098647,5.598585,0.500000,5.598585
2.6010,5.099004,5.628337,0.529389,5.628337
2.6020,5.099307,5.646858,0.547553,5.646858
2.6030,5.099556,5.647155,0.547553,5.647155
2.6040,5.099750,5.629217,0.529389,5.629217
2.6050,5.099889,5.599890,0.500000,5.599890
2.6060,5.099972,5.570555,0.470611,5.570555
2.6070,5.100000,5.552437,0.452447,5.552437
2.6080,5.099972,5.552363,0.452447,5.552363
2.6090,5.099889,5.570516,0.470611,5.570516
2.6100,5.099751,5.599729,0.500000,5.599729
2.6110,5.099557,5.628855,0.529389,5.628855
2.6120,5.099309,5.646795,0.547553,5.646795
2.6130,5.099006,5.646580,0.547553,5.646580
2.6140,5.098649,5.628125,0.529389,5.628125
2.6150,5.098239,5.598241,0.500000,5.598241
2.6160,5.097777,5.568384,0.470611,5.568384
2.6170,5.097262,5.549642,0.452447,5.549642
2.6180,5.096697,5.549141,0.452447,5.549141
2.6190,5.096082,5.566685,0.470611,5.566685
2.6200,5.095417,5.595409,0.500000,5.595409
2.6210,5.094704,5.624115,0.529389,5.624115
2.6220,5.093945,5.641465,0.547553,5.641465
2.6230,5.093140,5.640686,0.547553,5.640686
2.6240,5.092291,5.621675,0.529389,5.621675
2.6250,5.091398,5.591487,0.500000,5.591487
2.6260,5.090464,5.561033,0.470611,5.561033
2.6270,5.089490,5.541985,0.452447,5.541985
2.6280,5.088477,5.540874,0.452447,5.540874
2.6290,5.087428,5.558063,0.470611,5.558063
2.6300,5.086342,5.586374,0.500000,5.586374
2.6310,5.085223,5.614583,0.529389,5.614583
2.6320,5.084072,5.631638,0.547553,5.631638
2.6330,5.082890,5.630495,0.547553,5.630495
2.6340,5.081680,5.611084,0.529389,5.611084
2.6350,5.080443,5.580407,0.500000,5.580407
2.6360,5.079180,5.549824,0.470611,5.549824
2.6370,5.077894,5.530301,0.452447,5.530301
2.6380,5.076587,5.529034,0.452447,5.529034
2.6390,5.075260,5.545826,0.470611,5.545826
2.6400,5.073915,5.573921,0.500000,5.573921
2.6410,5.072553,5.601962,0.529389,5.601962
2.6420,5.071178,5.618690,0.547553,5.618690
2.6430,5.069790,5.617383,0.547553,5.617383
2.6440,5.068391,5.597722,0.529389,5.597722
2.6450,5.066983,5.566947,0.500000,5.566947
2.6460,5.065568,5.536135,0.470611,5.536135
2.6470,5.064147,5.516638,0.452447,5.516638
2.6480,5.062723,5.515166,0.452447,5.515166
2.6490,5.061296,5.531889,0.470611,5.531889
2.6500,5.059869,5.559831,0.500000,5.559831
2.6510,5.058443,5.587881,0.529389,5.587881
2.6520,5.057020,5.604467,0.547553,5.604467
2.6530,5.055600,5.603157,0.547553,5.603157
2.6540,5.054186,5.583542,0.529389,5.583542
2.6550,5.052779,5.552785,0.500000,5.552785
2.6560,5.051381,5.522023,0.470611,5.522023
2.6570,5.049992,5.502417,0.452447,5.502417
2.6580,5.048614,5.501083,0.452447,5.501083
2.6590,5.047249,5.517831,0.470611,5.517831
2.6600,5.045897,5.545908,0.500000,5.545908
2.6610,5.044559,5.573875,0.529389,5.573875
2.6620,5.043237,5.590781,0.547553,5.590781
2.6630,5.041932,5.589392,0.547553,5.589392
2.6640,5.040644,5.570132,0.529389,5.570132
2.6650,5.039374,5.539312,0.500000,5.539312
2.6660,5.038124,5.508621,0.470611,5.508621
2.6670,5.036894,5.489280,0.452447,5.489280
2.6680,5.035684,5.488111,0.452447,5.488111
2.6690,5.034496,5.505089,0.470611,5.505089
2.6700,5.033331,5.533302,0.500000,5.533302
2.6710,5.032187,5.561528,0.529389,5.561528
2.6720,5.031067,5.578673,0.547553,5.578673
2.6730,5.029970,5.577527,0.547553,5.577527
2.6740,5.028898,5.558320,0.529389,5.558320
2.6750,5.027850,5.527850,0.500000,5.527850
2.6760,5.026826,5.497442,0.470611,5.497442
2.6770,5.025827,5.478194,0.452447,5.478194
2.6780,5.024853,5.477292,0.452447,5.477292
2.6790,5.023905,5.494478,0.470611,5.494478
2.6800,5.022982,5.523055,0.500000,5.523055
2.6810,5.022084,5.551517,0.529389,5.551517
2.6820,5.021211,5.568800,0.547553,5.568800
2.6830,5.020364,5.567898,0.547553,5.567898
2.6840,5.019543,5.548939,0.529389,5.548939
2.6850,5.018746,5.518786,0.500000,5.518786
2.6860,5.017975,5.488628,0.470611,5.488628
2.6870,5.017229,5.469679,0.452447,5.469679
2.6880,5.016508,5.469041,0.452447,5.469041
2.6890,5.015811,5.486447,0.470611,5.486447
2.6900,5.015139,5.515142,0.500000,5.515142
2.6910,5.014490,5.543893,0.529389,5.543893
2.6920,5.013866,5.561382,0.547553,5.561382
2.6930,5.013265,5.560827,0.547553,5.560827
2.6940,5.012687,5.542081,0.529389,5.542081
2.6950,5.012132,5.512132,0.500000,5.512132
2.6960,5.011600,5.482196,0.470611,5.482196
2.6970,5.011089,5.463456,0.452447,5.463456
2.6980,5.010600,5.463015,0.452447,5.463015
2.6990,5.010133,5.480788,0.470611,5.480788
2.7000,5.009686,5.509620,0.500000,5.509620
2.7010,5.009260,5.538668,0.529389,5.538668
2.7020,5.008854,5.556379,0.547553,5.556379
2.7030,5.008468,5.556039,0.547553,5.556039
2.7040,5.008101,5.537476,0.529389,5.537476
2.7050,5.007752,5.507730,0.500000,5.507730
2.7060,5.007422,5.478046,0.470611,5.478046
2.7070,5.007109,5.459604,0.452447,5.459604
2.7080,5.006814,5.459265,0.452447,5.459265
2.7090,5.006536,5.477158,0.470611,5.477158
2.7100,5.006275,5.506297,0.500000,5.506297
2.7110,5.006030,5.535481,0.529389,5.535481
2.7120,5.005800,5.553339,0.547553,5.553339
2.7130,5.005586,5.553150,0.547553,5.553150
2.7140,5.005386,5.534842,0.529389,5.534842
2.7150,5.005201,5.505188,0.500000,5.505188
2.7160,5.005030,5.475665,0.470611,5.475665
2.7170,5.004873,5.457341,0.452447,5.457341
2.7180,5.004729,5.457180,0.452447,5.457180
2.7190,5.004597,5.475200,0.470611,5.475200
2.7200,5.004479,5.504477,0.500000,5.504477
2.7210,5.004372,5.533791,0.529389,5.533791
2.7220,5.004278,5.551841,0.547553,5.551841
2.7230,5.004195,5.551712,0.547553,5.551712
2.7240,5.004123,5.533549,0.529389,5.533549
2.7250,5.004062,5.504099,0.500000,5.504099
2.7260,5.004011,5.474580,0.470611,5.474580
2.7270,5.003971,5.456453,0.452447,5.456453
2.7280,5.003941,5.456490,0.452447,5.456490
2.7290,5.003920,5.474534,0.470611,5.474534
2.7300,5.003909,5.503826,0.500000,5.503826
2.7310,5.003907,5.533236,0.529389,5.533236
2.7320,5.003914,5.551504,0.547553,5.551504
2.7330,5.003930,5.551465,0.547553,5.551465
2.7340,5.003955,5.533326,0.529389,5.533326
2.7350,5.003987,5.503928,0.500000,5.503928
2.7360,5.004028,5.474611,0.470611,5.474611
2.7370,5.004077,5.456524,0.452447,5.456524
2.7380,5.004133,5.456574,0.452447,5.456574
2.7390,5.004197,5.474823,0.470611,5.474823
2.7400,5.004268,5.504276,0.500000,5.504276
2.7410,5.004347,5.533708,0.529389,5.533708
2.7420,5.004432,5.551955,0.547553,5.551955
2.7430,5.004525,5.552142,0.547553,5.552142
2.7440,5.004624,5.534060,0.529389,5.534060
2.7450,5.004730,5.504756,0.500000,5.504756
2.7460,5.004842,5.475472,0.470611,5.475472
2.7470,5.004961,5.457334,0.452447,5.457334
2.7480,5.005086,5.457554,0.452447,5.457554
2.7490,5.005218,5.475831,0.470611,5.475831
2.7500,5.005355,5.505411,0.500000,5.505411
2.7510,5.005499,5.534881,0.529389,5.534881
2.7520,5.005648,5.553126,0.547553,5.553126
2.7530,5.005804,5.553356,0.547553,5.553356
2.7540,5.005965,5.535393,0.529389,5.535393
2.7550,5.006131,5.506135,0.500000,5.506135
2.7560,5.006304,5.476881,0.470611,5.476881
2.7570,5.006481,5.458890,0.452447,5.458890
2.7580,5.006664,5.459086,0.452447,5.459086
2.7590,5.006853,5.477467,0.470611,5.477467
2.7600,5.007047,5.507117,0.500000,5.507117
2.7610,5.007245,5.536594,0.529389,5.536594
2.7620,5.007449,5.555040,0.547553,5.555040
2.7630,5.007658,5.555176,0.547553,5.555176
2.7640,5.007872,5.537277,0.529389,5.537277
2.7650,5.008091,5.508121,0.500000,5.508121
2.7660,5.008315,5.478945,0.470611,5.478945
2.7670,5.008543,5.461057,0.452447,5.461057
2.7680,5.008776,5.461213,0.452447,5.461213
2.7690,5.009014,5.479602,0.470611,5.479602
2.7700,5.009256,5.509269,0.500000,5.509269
2.7710,5.009503,5.538899,0.529389,5.538899
2.7720,5.009753,5.557263,0.547553,5.557263
2.7730,5.010008,5.557629,0.547553,5.557629
2.7740,5.010268,5.539599,0.529389,5.539599
2.7750,5.010531,5.510505,0.500000,5.510505
2.7760,5.010798,5.481353,0.470611,5.481353
2.7770,5.011069,5.463469,0.452447,5.463469
2.7780,5.011343,5.463773,0.452447,5.463773
2.7790,5.011622,5.482153,0.470611,5.482153
2.7800,5.011904,5.511882,0.500000,5.511882
2.7810,5.012189,5.541556,0.529389,5.541556
2.7820,5.012477,5.560061,0.547553,5.560061
2.7830,5.012769,5.560332,0.547553,5.560332
2.7840,5.013063,5.542449,0.529389,5.542449
2.7850,5.013361,5.513400,0.500000,5.513400
2.7860,5.013661,5.484298,0.470611,5.484298
2.7870,5.013963,5.466444,0.452447,5.466444
2.7880,5.014269,5.466693,0.452447,5.466693
