time_s,ppg_clean_ua,ppg_with_ambient_ua,ambient_ua,photodiode_total_ua
0.0000,5.000000,5.999945,1.000000,5.999945
0.0010,5.000000,6.109668,1.058779,6.109668
0.0020,5.000000,6.196820,1.095106,6.196820
0.0030,5.000000,6.247686,1.095106,6.247686
0.0040,5.000000,6.262147,1.058779,6.262147
0.0050,5.000000,6.254202,1.000000,6.254202
0.0060,5.000000,6.246066,0.941221,6.246066
0.0070,5.000000,6.260262,0.904894,6.260262
0.0080,5.000000,6.310699,0.904894,6.310699
0.0090,5.000000,6.397470,0.941221,6.397470
0.0100,5.000000,6.506414,1.000000,6.506414
0.0110,5.000000,6.615297,1.058779,6.615297
0.0120,5.000000,6.701397,1.095106,6.701397
0.0130,5.000000,6.751197,1.095106,6.751197
0.0140,5.000000,6.764314,1.058779,6.764314
0.0150,5.000000,6.754859,1.000000,6.754859
0.0160,5.000000,6.745154,0.941221,6.745154
0.0170,5.000000,6.757671,0.904894,6.757671
0.0180,5.000000,6.806422,0.904894,6.806422
0.0190,5.000000,6.890906,0.941221,6.890906
0.0200,5.000000,6.997751,1.000000,6.997751
0.0210,5.000000,7.104296,1.058779,7.104296
0.0220,5.000000,7.188086,1.095106,7.188086
0.0230,5.000000,7.235248,1.095106,7.235248
0.0240,5.000000,7.245667,1.058779,7.245667
0.0250,5.000000,7.233272,1.000000,7.233272
0.0260,5.000000,7.220585,0.941221,7.220585
0.0270,5.000000,7.229958,0.904894,7.229958
0.0280,5.000000,7.275204,0.904894,7.275204
0.0290,5.000000,7.356398,0.941221,7.356398
0.0300,5.000000,7.459865,1.000000,7.459865
0.0310,5.000000,7.562476,1.058779,7.562476
0.0320,5.000000,7.642531,1.095106,7.642531
0.0330,5.000000,7.685687,1.095106,7.685687
0.0340,5.000000,7.692034,1.058779,7.692034
0.0350,5.000000,7.675473,1.000000,7.675473
0.0360,5.000000,7.658546,0.941221,7.658546
0.0370,5.000000,7.663406,0.904894,7.663406
0.0380,5.000000,7.704104,0.904894,7.704104
0.0390,5.000000,7.780619,0.941221,7.780619
0.0400,5.000000,7.879087,1.000000,7.879087
0.0410,5.000000,7.976979,1.058779,7.976979
0.0420,5.000000,8.051922,1.095106,8.051922
0.0430,5.000000,8.089879,1.095106,8.089879
0.0440,5.000000,8.091006,1.058779,8.091006
0.0450,5.000000,8.069169,1.000000,8.069169
0.0460,5.000000,8.046578,0.941221,8.046578
0.0470,5.000000,8.045999,0.904894,8.045999
0.0480,5.000000,8.080898,0.904894,8.080898
0.0490,5.000000,8.151827,0.941221,8.151827
0.0500,5.000000,8.244363,1.000000,8.244363
0.0510,5.000000,8.336393,1.058779,8.336393
0.0520,5.000000,8.405121,1.095106,8.405121
0.0530,5.000000,8.437069,1.095106,8.437069
0.0540,5.000000,8.432068,1.058779,8.432068
0.0550,5.000000,8.403841,1.000000,8.403841
0.0560,5.000000,8.374959,0.941221,8.374959
0.0570,5.000000,8.367831,0.904894,8.367831
0.0580,5.000000,8.396399,0.904894,8.396399
0.0590,5.000000,8.460559,0.941221,8.460559
0.0600,5.000000,8.546471,1.000000,8.546471
0.0610,5.000000,8.631706,1.058779,8.631706
0.0620,5.000000,8.693821,1.095106,8.693821
0.0630,5.000000,8.718874,1.095106,8.718874
0.0640,5.000000,8.706855,1.058779,8.706855
0.0650,5.000000,8.671646,1.000000,8.671646
0.0660,5.000000,8.635767,0.941221,8.635767
0.0670,5.000000,8.621611,0.904894,8.621611
0.0680,5.000000,8.643088,0.904894,8.643088
0.0690,5.000000,8.700007,0.941221,8.700007
0.0700,5.000000,8.778815,1.000000,8.778815
0.0710,5.000000,8.856796,1.058779,8.856796
0.0720,5.000000,8.911495,1.095106,8.911495
0.0730,5.000000,8.929254,1.095106,8.929254
0.0740,5.000000,8.910040,1.058779,8.910040
0.0750,5.000000,8.867361,1.000000,8.867361
0.0760,5.000000,8.824178,0.941221,8.824178
0.0770,5.000000,8.802535,0.904894,8.802535
0.0780,5.000000,8.816537,0.904894,8.816537
0.0790,5.000000,8.866088,0.941221,8.866088
0.0800,5.000000,8.937390,1.000000,8.937390
0.0810,5.000000,9.007772,1.058779,9.007772
0.0820,5.000000,9.055245,1.095106,9.055245
0.0830,5.000000,9.065516,1.095106,9.065516
0.0840,5.000000,9.038663,1.058779,9.038663
0.0850,5.000000,8.988607,1.000000,8.988607
0.0860,5.000000,8.937836,0.941221,8.937836
0.0870,5.000000,8.908837,0.904894,8.908837
0.0880,5.000000,8.915371,0.904894,8.915371
0.0890,5.000000,8.957466,0.941221,8.957466
0.0900,5.000000,9.021405,1.000000,9.021405
0.0910,5.000000,9.084455,1.058779,9.084455
0.0920,5.000000,9.124349,1.095106,9.124349
0.0930,5.000000,9.127285,1.095106,9.127285
0.0940,5.000000,9.093052,1.058779,9.093052
0.0950,5.000000,9.035864,1.000000,9.035864
0.0960,5.000000,8.977735,0.941221,8.977735
0.0970,5.000000,8.941514,0.904894,8.941514
0.0980,5.000000,8.940849,0.904894,8.940849
0.0990,5.000000,8.975765,0.941221,8.975765
0.1000,5.000000,9.032549,1.000000,9.032549
0.1010,5.000000,9.088654,1.058779,9.088654
0.1020,5.000000,9.121636,1.095106,9.121636
0.1030,5.000000,9.117465,1.095106,9.117465
0.1040,5.000000,9.076458,1.058779,9.076458
0.1050,5.000000,9.012273,1.000000,9.012273
0.1060,5.000000,8.947383,0.941221,8.947383
0.1070,5.000000,8.904412,0.904894,8.904412
0.1080,5.000000,8.897122,0.904894,8.897122
0.1090,5.000000,8.925459,0.941221,8.925459
0.1100,5.000000,8.975657,1.000000,8.975657
0.1110,5.000000,9.025293,1.058779,9.025293
0.1120,5.000000,9.051755,1.095106,9.051755
0.1130,5.000000,9.041474,1.095106,9.041474
0.1140,5.000000,8.994088,1.058779,8.994088
0.1150,5.000000,8.923715,1.000000,8.923715
0.1160,5.000000,8.852807,0.941221,8.852807
0.1170,5.000000,8.803754,0.904894,8.803754
0.1180,5.000000,8.790485,0.904894,8.790485
0.1190,5.000000,8.813114,0.941221,8.813114
0.1200,5.000000,8.857573,1.000000,8.857573
0.1210,5.000000,8.901400,1.058779,8.901400
0.1220,5.000000,8.922477,1.095106,8.922477
0.1230,5.000000,8.906573,1.095106,8.906573
0.1240,5.000000,8.853801,1.058779,8.853801
0.1250,5.000000,8.778250,1.000000,8.778250
0.1260,5.000000,8.702112,0.941221,8.702112
0.1270,5.000000,8.648043,0.904894,8.648043
0.1280,5.000000,8.629843,0.904894,8.629843
0.1290,5.000000,8.647427,0.941221,8.647427
0.1300,5.000000,8.687068,1.000000,8.687068
0.1310,5.000000,8.726326,1.058779,8.726326
0.1320,5.000000,8.742727,1.095106,8.742727
0.1330,5.000000,8.722418,1.095106,8.722418
0.1340,5.000000,8.665318,1.058779,8.665318
0.1350,5.000000,8.585453,1.000000,8.585453
0.1360,5.000000,8.505072,0.941221,8.505072
0.1370,5.000000,8.447074,0.904894,8.447074
0.1380,5.000000,8.424835,0.904894,8.424835
0.1390,5.000000,8.438753,0.941221,8.438753
0.1400,5.000000,8.474646,1.000000,8.474646
0.1410,5.000000,8.510269,1.058779,8.510269
0.1420,5.000000,8.523294,1.095106,8.523294
0.1430,5.000000,8.499573,1.095106,8.499573
0.1440,5.000000,8.439197,1.058779,8.439197
0.1450,5.000000,8.356231,1.000000,8.356231
0.1460,5.000000,8.273021,0.941221,8.273021
0.1470,5.000000,8.211979,0.904894,8.211979
0.1480,5.000000,8.186999,0.904894,8.186999
0.1490,5.000000,8.198224,0.941221,8.198224
0.1500,5.000000,8.231544,1.000000,8.231544
0.1510,5.000000,8.264734,1.058779,8.264734
0.1520,5.000000,8.275410,1.095106,8.275410
0.1530,5.000000,8.249544,1.095106,8.249544
0.1540,5.000000,8.187098,1.058779,8.187098
0.1550,5.000000,8.102234,1.000000,8.102234
0.1560,5.000000,8.017065,0.941221,8.017065
0.1570,5.000000,7.954339,0.904894,7.954339
0.1580,5.000000,7.927748,0.904894,7.927748
0.1590,5.000000,7.937502,0.941221,7.937502
0.1600,5.000000,7.969470,1.000000,7.969470
0.1610,5.000000,8.001480,1.058779,8.001480
0.1620,5.000000,8.010882,1.095106,8.010882
0.1630,5.000000,7.983953,1.095106,7.983953
0.1640,5.000000,7.920671,1.058779,7.920671
0.1650,5.000000,7.834862,1.000000,7.834862
0.1660,5.000000,7.749036,0.941221,7.749036
0.1670,5.000000,7.685734,0.904894,7.685734
0.1680,5.000000,7.658640,0.904894,7.658640
0.1690,5.000000,7.667974,0.941221,7.667974
0.1700,5.000000,7.699780,1.000000,7.699780
0.1710,5.000000,7.731567,1.058779,7.731567
0.1720,5.000000,7.740993,1.095106,7.740993
0.1730,5.000000,7.714165,1.095106,7.714165
0.1740,5.000000,7.650964,1.058779,7.650964
0.1750,5.000000,7.565376,1.000000,7.565376
0.1760,5.000000,7.479937,0.941221,7.479937
0.1770,5.000000,7.417010,0.904894,7.417010
0.1780,5.000000,7.390543,0.904894,7.390543
0.1790,5.000000,7.400577,0.941221,7.400577
0.1800,5.000000,7.432985,1.000000,7.432985
0.1810,5.000000,7.465567,1.058779,7.465567
0.1820,5.000000,7.476015,1.095106,7.476015
0.1830,5.000000,7.450098,1.095106,7.450098
0.1840,5.000000,7.388102,1.058779,7.388102
0.1850,5.000000,7.303701,1.000000,7.303701
0.1860,5.000000,7.219524,0.941221,7.219524
0.1870,5.000000,7.158067,0.904894,7.158067
0.1880,5.000000,7.132966,0.904894,7.132966
0.1890,5.000000,7.144432,0.941221,7.144432
0.1900,5.000000,7.178606,1.000000,7.178606
0.1910,5.000000,7.212915,1.058779,7.212915
0.1920,5.000000,7.224958,1.095106,7.224958
0.1930,5.000000,7.200938,1.095106,7.200938
0.1940,5.000000,7.140834,1.058779,7.140834
0.1950,5.000000,7.058483,1.000000,7.058483
0.1960,5.000000,6.976280,0.941221,6.976280
0.1970,5.000000,6.916804,0.904894,6.916804
0.1980,5.000000,6.893947,0.904894,6.893947
0.1990,5.000000,6.907598,0.941221,6.907598
0.2000,5.000000,6.944071,1.000000,6.944071
0.2010,5.000000,6.980587,1.058779,6.980587
0.2020,5.000000,6.995141,1.095106,6.995141
0.2030,5.000000,6.973462,1.095106,6.973462
0.2040,5.000000,6.915864,1.058779,6.915864
0.2050,5.000000,6.835958,1.000000,6.835958
0.2060,5.000000,6.756374,0.941221,6.756374
0.2070,5.000000,6.699564,0.904894,6.699564
0.2080,5.000000,6.679403,0.904894,6.679403
0.2090,5.000000,6.695735,0.941221,6.695735
0.2100,5.000000,6.734848,1.000000,6.734848
0.2110,5.000000,6.774315,1.058779,6.774315
0.2120,5.000000,6.791551,1.095106,6.791551
0.2130,5.000000,6.772744,1.095106,6.772744
0.2140,5.000000,6.717948,1.058779,6.717948
0.2150,5.000000,6.640947,1.000000,6.640947
0.2160,5.000000,6.564260,0.941221,6.564260
0.2170,5.000000,6.510356,0.904894,6.510356
0.2180,5.000000,6.493074,0.904894,6.493074
0.2190,5.000000,6.512359,0.941221,6.512359
0.2200,5.000000,6.554435,1.000000,6.554435
0.2210,5.000000,6.596800,1.058779,6.596800
0.2220,5.000000,6.617075,1.095106,6.617075
0.2230,5.000000,6.601182,1.095106,6.601182
0.2240,5.000000,6.549369,1.058779,6.549369
0.2250,5.000000,6.475462,1.000000,6.475462
0.2260,5.000000,6.401736,0.941221,6.401736
0.2270,5.000000,6.350811,0.904894,6.350811
0.2280,5.000000,6.336426,0.904894,6.336426
0.2290,5.000000,6.358801,0.941221,6.358801
0.2300,5.000000,6.403761,1.000000,6.403761
0.2310,5.000000,6.449151,1.058779,6.449151
0.2320,5.000000,6.472255,1.095106,6.472255
0.2330,5.000000,6.459427,1.095106,6.459427
0.2340,5.000000,6.410425,1.058779,6.410425
0.2350,5.000000,6.339335,1.000000,6.339335
0.2360,5.000000,6.268532,0.941221,6.268532
0.2370,5.000000,6.220382,0.904894,6.220382
0.2380,5.000000,6.208850,0.904894,6.208850
0.2390,5.000000,6.233883,0.941221,6.233883
0.2400,5.000000,6.281706,1.000000,6.281706
0.2410,5.000000,6.329626,1.058779,6.329626
0.2420,5.000000,6.355673,1.095106,6.355673
0.2430,5.000000,6.345278,1.095106,6.345278
0.2440,5.000000,6.298969,1.058779,6.298969
0.2450,5.000000,6.230387,1.000000,6.230387
0.2460,5.000000,6.162092,0.941221,6.162092
0.2470,5.000000,6.116351,0.904894,6.116351
0.2480,5.000000,6.107253,0.904894,6.107253
0.2490,5.000000,6.134610,0.941221,6.134610
0.2500,5.000000,6.184788,1.000000,6.184788
0.2510,5.000000,6.235071,1.058779,6.235071
0.2520,5.000000,6.263104,1.095106,6.263104
0.2530,5.000000,6.254982,1.095106,6.254982
0.2540,5.000000,6.210745,1.058779,6.210745
0.2550,5.000000,6.144246,1.000000,6.144246
0.2560,5.000000,6.077863,0.941221,6.077863
0.2570,5.000000,6.034081,0.904894,6.034081
0.2580,5.000000,6.026873,0.904894,6.026873
0.2590,5.000000,6.056093,0.941221,6.056093
0.2600,5.000000,6.107847,1.000000,6.107847
0.2610,5.000000,6.159867,1.058779,6.159867
0.2620,5.000000,6.189512,1.095106,6.189512
0.2630,5.000000,6.182897,1.095106,6.182897
0.2640,5.000000,6.140160,1.058779,6.140160
0.2650,5.000000,6.075043,1.000000,6.075043
0.2660,5.000000,6.009997,0.941221,6.009997
0.2670,5.000000,5.967525,0.904894,5.967525
0.2680,5.000000,5.961422,0.904894,5.961422
0.2690,5.000000,5.991736,0.941221,5.991736
0.2700,5.000000,6.044698,1.000000,6.044698
0.2710,5.000000,6.097507,1.058779,6.097507
0.2720,5.000000,6.127973,1.095106,6.127973
0.2730,5.000000,6.122280,1.095106,6.122280
0.2740,5.000000,6.080219,1.058779,6.080219
0.2750,5.000000,6.015733,1.000000,6.015733
0.2760,5.000000,5.951205,0.941221,5.951205
0.2770,5.000000,5.909318,0.904894,5.909318
0.2780,5.000000,5.903589,0.904894,5.903589
0.2790,5.000000,5.934359,0.941221,5.934359
0.2800,5.000000,5.987376,1.000000,5.987376
0.2810,5.000000,6.040462,1.058779,6.040462
0.2820,5.000000,6.071166,1.095106,6.071166
0.2830,5.000000,6.065425,1.095106,6.065425
0.2840,5.000000,6.023227,1.058779,6.023227
0.2850,5.000000,5.958641,1.000000,5.958641
0.2860,5.000000,5.893941,0.941221,5.893941
0.2870,5.000000,5.851718,0.904894,5.851718
0.2880,5.000000,5.845712,0.904894,5.845712
0.2890,5.000000,5.875880,0.941221,5.875880
0.2900,5.000000,5.928509,1.000000,5.928509
0.2910,5.000000,5.980899,1.058779,5.980899
0.2920,5.000000,6.010802,1.095106,6.010802
0.2930,5.000000,6.004370,1.095106,6.004370
0.2940,5.000000,5.961478,1.058779,5.961478
0.2950,5.000000,5.895949,1.000000,5.895949
0.2960,5.000000,5.830224,0.941221,5.830224
0.2970,5.000000,5.786845,0.904894,5.786845
0.2980,5.000000,5.779673,0.904894,5.779673
0.2990,5.000000,5.808765,0.941221,5.808765
0.3000,5.000000,5.860030,1.000000,5.860030
0.3010,5.000000,5.911147,1.058779,5.911147
0.3020,5.000000,5.939673,1.095106,5.939673
0.3030,5.000000,5.931701,1.095106,5.931701
0.3040,5.000000,5.887089,1.058779,5.887089
0.3050,5.000000,5.820013,1.000000,5.820013
0.3060,5.000000,5.752601,0.941221,5.752601
0.3070,5.000000,5.707558,0.904894,5.707558
0.3080,5.000000,5.698496,0.904894,5.698496
0.3090,5.000000,5.725661,0.941221,5.725661
0.3100,5.000000,5.774928,1.000000,5.774928
0.3110,5.000000,5.824152,1.058779,5.824152
0.3120,5.000000,5.850560,1.095106,5.850560
0.3130,5.000000,5.840462,1.095106,5.840462
0.3140,5.000000,5.793742,1.058779,5.793742
0.3150,5.000000,5.724303,1.000000,5.724303
0.3160,5.000000,5.654642,0.941221,5.654642
0.3170,5.000000,5.607169,0.904894,5.607169
0.3180,5.000000,5.595803,0.904894,5.595803
0.3190,5.000000,5.620472,0.941221,5.620472
0.3200,5.000000,5.667406,1.000000,5.667406
0.3210,5.000000,5.714032,1.058779,5.714032
0.3220,5.000000,5.737897,1.095106,5.737897
0.3230,5.000000,5.725189,1.095106,5.725189
0.3240,5.000000,5.675727,1.058779,5.675727
0.3250,5.000000,5.603731,1.000000,5.603731
0.3260,5.000000,5.531303,0.941221,5.531303
0.3270,5.000000,5.481129,0.904894,5.481129
0.3280,5.000000,5.466941,0.904894,5.466941
0.3290,5.000000,5.488847,0.941221,5.488847
0.3300,5.000000,5.532906,1.000000,5.532906
0.3310,5.000000,5.576751,1.058779,5.576751
0.3320,5.000000,5.597616,1.095106,5.597616
0.3330,5.000000,5.582008,1.095106,5.582008
0.3340,5.000000,5.529675,1.058779,5.529675
0.3350,5.000000,5.454696,1.000000,5.454696
0.3360,5.000000,5.379408,0.941221,5.379408
0.3370,5.000000,5.326225,0.904894,5.326225
0.3380,5.000000,5.309007,0.904894,5.309007
0.3390,5.000000,5.327906,0.941221,5.327906
0.3400,5.000000,5.369045,1.000000,5.369045
0.3410,5.000000,5.409827,1.058779,5.409827
0.3420,5.000000,5.427844,1.095106,5.427844
0.3430,5.000000,5.409152,1.095106,5.409152
0.3440,5.000000,5.353907,1.058779,5.353907
0.3450,5.000000,5.275956,1.000000,5.275956
0.3460,5.000000,5.197667,0.941221,5.197667
0.3470,5.000000,5.141487,0.904894,5.141487
0.3480,5.000000,5.121514,0.904894,5.121514
0.3490,5.000000,5.137606,0.941221,5.137606
0.3500,5.000000,5.175581,1.000000,5.175581
0.3510,5.000000,5.213441,1.058779,5.213441
0.3520,5.000000,5.228606,1.095106,5.228606
0.3530,5.000000,5.207106,1.095106,5.207106
0.3540,5.000000,5.149064,1.058779,5.149064
0.3550,5.000000,5.068393,1.000000,5.068393
0.3560,5.000000,4.987256,0.941221,4.987256
0.3570,5.000000,4.928511,0.904894,4.928511
0.3580,5.000000,4.905715,0.904894,4.905715
0.3590,5.000000,4.919089,0.941221,4.919089
0.3600,5.000000,4.954646,1.000000,4.954646
0.3610,5.000000,4.989941,1.058779,4.989941
0.3620,5.000000,5.002552,1.095106,5.002552
0.3630,5.000000,4.978595,1.095106,4.978595
0.3640,5.000000,4.918130,1.058779,4.918130
0.3650,5.000000,4.835124,1.000000,4.835124
0.3660,5.000000,4.751681,0.941221,4.751681
0.3670,5.000000,4.690703,0.904894,4.690703
0.3680,5.000000,4.665650,0.904894,4.665650
0.3690,5.000000,4.676885,0.941221,4.676885
0.3700,5.000000,4.710372,1.000000,4.710372
0.3710,5.000000,4.743704,1.058779,4.743704
0.3720,5.000000,4.754418,1.095106,4.754418
0.3730,5.000000,4.728574,1.095106,4.728574
0.3740,5.000000,4.666319,1.058779,4.666319
0.3750,5.000000,4.581498,1.000000,4.581498
0.3760,5.000000,4.496505,0.941221,4.496505
0.3770,5.000000,4.433907,0.904894,4.433907
0.3780,5.000000,4.407473,0.904894,4.407473
0.3790,5.000000,4.417280,0.941221,4.417280
0.3800,5.000000,4.449394,1.000000,4.449394
0.3810,5.000000,4.481478,1.058779,4.481478
0.3820,5.000000,4.491072,1.095106,4.491072
0.3830,5.000000,4.464174,1.095106,4.464174
0.3840,5.000000,4.400981,1.058779,4.400981
0.3850,5.000000,4.315220,1.000000,4.315220
0.3860,5.000000,4.229490,0.941221,4.229490
0.3870,5.000000,4.166110,0.904894,4.166110
0.3880,5.000000,4.139197,0.904894,4.139197
0.3890,5.000000,4.148363,0.941221,4.148363
0.3900,5.000000,4.180160,1.000000,4.180160
0.3910,5.000000,4.211844,1.058779,4.211844
0.3920,5.000000,4.221159,1.095106,4.221159
0.3930,5.000000,4.194192,1.095106,4.194192
0.3940,5.000000,4.130956,1.058779,4.130956
0.3950,5.000000,4.045372,1.000000,4.045372
0.3960,5.000000,3.959752,0.941221,3.959752
0.3970,5.000000,3.896783,0.904894,3.896783
0.3980,5.000000,3.870197,0.904894,3.870197
0.3990,5.000000,3.880028,0.941221,3.880028
0.4000,5.000000,3.912453,1.000000,3.912453
0.4010,5.000000,3.944874,1.058779,3.944874
0.4020,5.000000,3.955130,1.095106,3.955130
0.4030,5.000000,3.929060,1.095106,3.929060
0.4040,5.000000,3.867009,1.058779,3.867009
0.4050,5.000000,3.782574,1.000000,3.782574
0.4060,5.000000,3.698255,0.941221,3.698255
0.4070,5.000000,3.636684,0.904894,3.636684
0.4080,5.000000,3.611670,0.904894,3.611670
0.4090,5.000000,3.623163,0.941221,3.623163
0.4100,5.000000,3.657312,1.000000,3.657312
0.4110,5.000000,3.691735,1.058779,3.691735
0.4120,5.000000,3.703964,1.095106,3.703964
0.4130,5.000000,3.680128,1.095106,3.680128
0.4140,5.000000,3.620222,1.058779,3.620222
0.4150,5.000000,3.538176,1.000000,3.538176
0.4160,5.000000,3.456315,0.941221,3.456315
0.4170,5.000000,3.397292,0.904894,3.397292
0.4180,5.000000,3.375010,0.904894,3.375010
0.4190,5.000000,3.389431,0.941221,3.389431
0.4200,5.000000,3.426422,1.000000,3.426422
0.4210,5.000000,3.463910,1.058779,3.463910
0.4220,5.000000,3.479285,1.095106,3.479285
0.4230,5.000000,3.458712,1.095106,3.458712
0.4240,5.000000,3.402264,1.058779,3.402264
0.4250,5.000000,3.323702,1.000000,3.323702
0.4260,5.000000,3.245582,0.941221,3.245582
0.4270,5.000000,3.190307,0.904894,3.190307
0.4280,5.000000,3.171893,0.904894,3.171893
0.4290,5.000000,3.190106,0.941221,3.190106
0.4300,5.000000,3.231401,1.000000,3.231401
0.4310,5.000000,3.272973,1.058779,3.272973
0.4320,5.000000,3.292690,1.095106,3.292690
0.4330,5.000000,3.276521,1.095106,3.276521
0.4340,5.000000,3.224598,1.058779,3.224598
0.4350,5.000000,3.150676,1.000000,3.150676
0.4360,5.000000,3.077249,0.941221,3.077249
0.4370,5.000000,3.026876,0.904894,3.026876
0.4380,5.000000,3.013262,0.904894,3.013262
0.4390,5.000000,3.036564,0.941221,3.036564
0.4400,5.000000,3.083011,1.000000,3.083011
0.4410,5.000000,3.129763,1.058779,3.129763
0.4420,5.000000,3.154792,1.095106,3.154792
0.4430,5.000000,3.144199,1.095106,3.144199
0.4440,5.000000,3.097648,1.058779,3.097648
0.4450,5.000000,3.029421,1.000000,3.029421
0.4460,5.000000,2.961647,0.941221,2.961647
0.4470,5.000000,2.917007,0.904894,2.917007
0.4480,5.000000,2.909425,0.904894,2.909425
0.4490,5.000000,2.938694,0.941221,2.938694
0.4500,5.000000,2.990968,1.000000,2.990968
0.4510,5.000000,3.044023,1.058779,3.044023
0.4520,5.000000,3.075272,1.095106,3.075272
0.4530,5.000000,3.070868,1.095106,3.070868
0.4540,5.000000,3.030692,1.058779,3.030692
0.4550,5.000000,2.968783,1.000000,2.968783
0.4560,5.000000,2.907615,0.941221,2.907615
0.4570,5.000000,2.869557,0.904894,2.869557
0.4580,5.000000,2.868526,0.904894,2.868526
0.4590,5.000000,2.904535,0.941221,2.904535
0.4600,5.000000,2.963674,1.000000,2.963674
0.4610,5.000000,3.023563,1.058779,3.023563
0.4620,5.000000,3.061648,1.095106,3.061648
0.4630,5.000000,3.064110,1.095106,3.064110
0.4640,5.000000,3.031014,1.058779,3.031014
0.4650,5.000000,2.976136,1.000000,2.976136
0.4660,5.000000,2.922059,0.941221,2.922059
0.4670,5.000000,2.891167,0.904894,2.891167
0.4680,5.000000,2.897275,0.904894,2.897275
0.4690,5.000000,2.940424,0.941221,2.940424
0.4700,5.000000,3.006845,1.000000,3.006845
0.4710,5.000000,3.073922,1.058779,3.073922
0.4720,5.000000,3.119342,1.095106,3.119342
0.4730,5.000000,3.129185,1.095106,3.129185
0.4740,5.000000,3.103421,1.058779,3.103421
0.4750,5.000000,3.055989,1.000000,3.055989
0.4760,5.000000,3.009251,0.941221,3.009251
0.4770,5.000000,2.985859,0.904894,2.985859
0.4780,5.000000,2.999408,0.904894,2.999408
0.4790,5.000000,3.050032,0.941221,3.050032
0.4800,5.000000,3.123917,1.000000,3.123917
0.4810,5.000000,3.198521,1.058779,3.198521
0.4820,5.000000,3.251434,1.095106,3.251434
0.4830,5.000000,3.268696,1.095106,3.268696
0.4840,5.000000,3.250452,1.058779,3.250452
0.4850,5.000000,3.210488,1.000000,3.210488
0.4860,5.000000,3.171241,0.941221,3.171241
0.4870,5.000000,3.155194,0.904894,3.155194
0.4880,5.000000,3.176243,0.904894,3.176243
0.4890,5.000000,3.234265,0.941221,3.234265
0.4900,5.000000,3.315491,1.000000,3.315491
0.4910,5.000000,3.397447,1.058779,3.397447
0.4920,5.000000,3.457729,1.095106,3.457729
0.4930,5.000000,3.482472,1.095106,3.482472
0.4940,5.000000,3.471412,1.058779,3.471412
0.4950,5.000000,3.438668,1.000000,3.438668
0.4960,5.000000,3.406706,0.941221,3.406706
0.4970,5.000000,3.397831,0.904894,3.397831
0.4980,5.000000,3.425984,0.904894,3.425984
0.4990,5.000000,3.491157,0.941221,3.491157
0.5000,5.000000,3.579436,1.000000,3.579436
0.5010,5.000000,3.668452,1.058779,3.668452
0.5020,5.000000,3.735636,1.095106,3.735636
0.5030,5.000000,3.767261,1.095106,3.767261
0.5040,5.000000,3.763077,1.058779,3.763077
0.5050,5.000000,3.737137,1.000000,3.737137
0.5060,5.000000,3.711821,0.941221,3.711821
0.5070,5.000000,3.709464,0.904894,3.709464
0.5080,5.000000,3.744316,0.904894,3.744316
0.5090,5.000000,3.815950,0.941221,3.815950
0.5100,5.000000,3.910660,1.000000,3.910660
0.5110,5.000000,4.006004,1.058779,4.006004
0.5120,5.000000,4.079455,1.095106,4.079455
0.5130,5.000000,4.117117,1.095106,4.117117
0.5140,5.000000,4.119114,1.058779,4.119114
0.5150,5.000000,4.099080,1.000000,4.099080
0.5160,5.000000,4.079771,0.941221,4.079771
0.5170,5.000000,4.083359,0.904894,4.083359
0.5180,5.000000,4.123727,0.904894,4.123727
0.5190,5.000000,4.201011,0.941221,4.201011
0.5200,5.000000,4.301263,1.000000,4.301263
0.5210,5.000000,4.402077,1.058779,4.402077
0.5220,5.000000,4.480741,1.095106,4.480741
0.5230,5.000000,4.523627,1.095106,4.523627
0.5240,5.000000,4.530717,1.058779,4.530717
0.5250,5.000000,4.515743,1.000000,4.515743
0.5260,5.000000,4.501182,0.941221,4.501182
0.5270,5.000000,4.509570,0.904894,4.509570
0.5280,5.000000,4.554530,0.904894,4.554530
0.5290,5.000000,4.636404,0.941221,4.636404
0.5300,5.000000,4.741099,1.000000,4.741099
0.5310,5.000000,4.846103,1.058779,4.846103
0.5320,5.000000,4.929032,1.095106,4.929032
0.5330,5.000000,4.975946,1.095106,4.975946
0.5340,5.000000,4.986874,1.058779,4.986874
0.5350,5.000000,4.975651,1.000000,4.975651
0.5360,5.000000,4.964753,0.941221,4.964753
0.5370,5.000000,4.976519,0.904894,4.976519
0.5380,5.000000,5.025047,0.904894,5.025047
0.5390,5.000000,5.110044,0.941221,5.110044
0.5400,5.000000,5.217861,1.000000,5.217861
0.5410,5.000000,5.325720,1.058779,5.325720
0.5420,5.000000,5.411522,1.095106,5.411522
0.5430,5.000000,5.461189,1.095106,5.461189
0.5440,5.000000,5.474683,1.058779,5.474683
0.5450,5.000000,5.465737,1.000000,5.465737
0.5460,5.000000,5.457132,0.941221,5.457132
0.5470,5.000000,5.471080,0.904894,5.471080
0.5480,5.000000,5.521466,0.904894,5.521466
0.5490,5.000000,5.608269,0.941221,5.608269
0.5500,5.000000,5.717653,1.000000,5.717653
0.5510,5.000000,5.827235,1.058779,5.827235
0.5520,5.000000,5.914317,1.095106,5.914317
0.5530,5.000000,5.965066,1.095106,5.965066
0.5540,5.000000,5.979624,1.058779,5.979624
0.5550,5.000000,5.971721,1.000000,5.971721
0.5560,5.000000,5.963846,0.941221,5.963846
0.5570,5.000000,5.978452,0.904894,5.978452
0.5580,5.000000,6.029226,0.904894,6.029226
0.5590,5.000000,6.116396,0.941221,6.116396
0.5600,5.000000,6.226013,1.000000,6.226013
0.5610,5.000000,6.335429,1.058779,6.335429
0.5620,5.000000,6.422397,1.095106,6.422397
0.5630,5.000000,6.473028,1.095106,6.473028
0.5640,5.000000,6.486974,1.058779,6.486974
0.5650,5.000000,6.478537,1.000000,6.478537
0.5660,5.000000,6.469907,0.941221,6.469907
0.5670,5.000000,6.483503,0.904894,6.483503
0.5680,5.000000,6.533397,0.904894,6.533397
0.5690,5.000000,6.619312,0.941221,6.619312
0.5700,5.000000,6.727538,1.000000,6.727538
0.5710,5.000000,6.835512,1.058779,6.835512
0.5720,5.000000,6.920880,1.095106,6.920880
0.5730,5.000000,6.969524,1.095106,6.969524
0.5740,5.000000,6.981749,1.058779,6.981749
0.5750,5.000000,6.971062,1.000000,6.971062
0.5760,5.000000,6.960248,0.941221,6.960248
0.5770,5.000000,6.971475,0.904894,6.971475
0.5780,5.000000,7.018895,0.904894,7.018895
0.5790,5.000000,7.102161,0.941221,7.102161
0.5800,5.000000,7.207508,1.000000,7.207508
0.5810,5.000000,7.312644,1.058779,7.312644
0.5820,5.000000,7.394897,1.095106,7.394897
0.5830,5.000000,7.440338,1.095106,7.440338
0.5840,5.000000,7.449139,1.058779,7.449139
0.5850,5.000000,7.435055,1.000000,7.435055
0.5860,5.000000,7.420627,0.941221,7.420627
0.5870,5.000000,7.428120,0.904894,7.428120
0.5880,5.000000,7.471587,0.904894,7.471587
0.5890,5.000000,7.550878,0.941221,7.550878
0.5900,5.000000,7.652089,1.000000,7.652089
0.5910,5.000000,7.752926,1.058779,7.752926
0.5920,5.000000,7.830761,1.095106,7.830761
0.5930,5.000000,7.871834,1.095106,7.871834
0.5940,5.000000,7.875880,1.058779,7.875880
0.5950,5.000000,7.857082,1.000000,7.857082
0.5960,5.000000,7.837813,0.941221,7.837813
0.5970,5.000000,7.840286,0.904894,7.840286
0.5980,5.000000,7.878640,0.904894,7.878640
0.5990,5.000000,7.952745,0.941221,7.952745
0.6000,5.000000,8.048806,1.000000,8.048806
0.6010,5.000000,8.144161,1.058779,8.144161
0.6020,5.000000,8.216434,1.095106,8.216434
0.6030,5.000000,8.251819,1.095106,8.251819
0.6040,5.000000,8.250271,1.058779,8.250271
0.6050,5.000000,8.225674,1.000000,8.225674
0.6060,5.000000,8.200433,0.941221,8.200433
0.6070,5.000000,8.197085,0.904894,8.197085
0.6080,5.000000,8.229179,0.904894,8.229179
0.6090,5.000000,8.297228,0.941221,8.297228
0.6100,5.000000,8.386905,1.000000,8.386905
0.6110,5.000000,8.476003,1.058779,8.476003
0.6120,5.000000,8.541906,1.095106,8.541906
0.6130,5.000000,8.570840,1.095106,8.570840
0.6140,5.000000,8.562822,1.058779,8.562822
0.6150,5.000000,8.531460,1.000000,8.531460
0.6160,5.000000,8.499566,0.941221,8.499566
0.6170,5.000000,8.489391,0.904894,8.489391
0.6180,5.000000,8.514818,0.904894,8.514818
0.6190,5.000000,8.575797,0.941221,8.575797
0.6200,5.000000,8.658612,1.000000,8.658612
0.6210,5.000000,8.740763,1.058779,8.740763
0.6220,5.000000,8.799580,1.095106,8.799580
0.6230,5.000000,8.821392,1.095106,8.821392
0.6240,5.000000,8.806188,1.058779,8.806188
0.6250,5.000000,8.767744,1.000000,8.767744
0.6260,5.000000,8.728654,0.941221,8.728654
0.6270,5.000000,8.711163,0.904894,8.711163
0.6280,5.000000,8.729286,0.904894,8.729286
0.6290,5.006218,8.789283,0.941221,8.789283
0.6300,5.006571,8.865052,1.000000,8.865052
0.6310,5.006941,8.940096,1.058779,8.940096
0.6320,5.007327,8.991924,1.095106,8.991924
0.6330,5.007730,9.006838,1.095106,9.006838
0.6340,5.008152,8.984404,1.058779,8.984404
0.6350,5.008591,8.939125,1.000000,8.939125
0.6360,5.009049,8.892871,0.941221,8.892871
0.6370,5.009526,8.868519,0.904894,8.868519
0.6380,5.010023,8.879703,0.904894,8.879703
0.6390,5.010540,8.926477,0.941221,8.926477
0.6400,5.011077,8.994886,1.000000,8.994886
0.6410,5.011635,9.062609,1.058779,9.062609
0.6420,5.012215,9.107324,1.095106,9.107324
0.6430,5.012816,9.114825,1.095106,9.114825
0.6440,5.013440,9.085238,1.058779,9.085238
0.6450,5.014086,9.032755,1.000000,9.032755
0.6460,5.014754,8.979320,0.941221,8.979320
0.6470,5.015446,8.947678,0.904894,8.947678
0.6480,5.016162,8.951766,0.904894,8.951766
0.6490,5.016901,8.991302,0.941221,8.991302
0.6500,5.017664,9.052740,1.000000,9.052740
0.6510,5.018452,9.113521,1.058779,9.113521
0.6520,5.019263,9.151039,1.095106,9.151039
0.6530,5.020100,9.151608,1.095106,9.151608
0.6540,5.020961,9.115193,1.058779,9.115193
0.6550,5.021847,9.055592,1.000000,9.055592
0.6560,5.022757,8.995371,0.941221,8.995371
0.6570,5.023692,8.957002,0.904894,8.957002
0.6580,5.024652,8.954292,0.904894,8.954292
0.6590,5.025637,8.987190,0.941221,8.987190
0.6600,5.026646,9.041977,1.000000,9.041977
0.6610,5.027680,9.096075,1.058779,9.096075
0.6620,5.028738,9.127199,1.095106,9.127199
0.6630,5.029819,9.121226,1.095106,9.121226
0.6640,5.030924,9.078476,1.058779,9.078476
0.6650,5.032053,9.012507,1.000000,9.012507
0.6660,5.033203,8.946130,0.941221,8.946130
0.6670,5.034377,8.901478,0.904894,8.901478
0.6680,5.035571,8.892676,0.904894,8.892676
0.6690,5.036787,8.919419,0.941221,8.919419
0.6700,5.038024,8.968253,1.000000,8.968253
0.6710,5.039280,9.016446,1.058779,9.016446
0.6720,5.040555,9.041747,1.095106,9.041747
0.6730,5.041848,9.030041,1.095106,9.030041
0.6740,5.043158,8.981521,1.058779,8.981521
0.6750,5.044485,8.910072,1.000000,8.910072
0.6760,5.045827,8.837943,0.941221,8.837943
0.6770,5.047183,8.788056,0.904894,8.788056
0.6780,5.048553,8.773718,0.904894,8.773718
0.6790,5.049934,8.795384,0.941221,8.795384
0.6800,5.051327,8.838973,1.000000,8.838973
0.6810,5.052728,8.882129,1.058779,8.882129
0.6820,5.054138,8.902339,1.095106,8.902339
0.6830,5.055555,8.885753,1.095106,8.885753
0.6840,5.056977,8.832484,1.058779,8.832484
0.6850,5.058404,8.756223,1.000000,8.756223
0.6860,5.059832,8.679496,0.941221,8.679496
0.6870,5.061262,8.624942,0.904894,8.624942
0.6880,5.062690,8.606243,0.904894,8.606243
0.6890,5.064117,8.623440,0.941221,8.623440
0.6900,5.065540,8.662749,1.000000,8.662749
0.6910,5.066956,8.701667,1.058779,8.701667
0.6920,5.068366,8.717802,1.095106,8.717802
0.6930,5.069767,8.697161,1.095106,8.697161
0.6940,5.071156,8.639996,1.058779,8.639996
0.6950,5.072533,8.559895,1.000000,8.559895
0.6960,5.073896,8.479604,0.941221,8.479604
0.6970,5.075242,8.421322,0.904894,8.421322
0.6980,5.076570,8.399107,0.904894,8.399107
0.6990,5.077879,8.412925,0.941221,8.412925
0.7000,5.079166,8.448946,1.000000,8.448946
0.7010,5.080429,8.484657,1.058779,8.484657
0.7020,5.081667,8.497591,1.095106,8.497591
0.7030,5.082879,8.473886,1.095106,8.473886
0.7040,5.084061,8.413832,1.058779,8.413832
0.7050,5.085213,8.330921,1.000000,8.330921
0.7060,5.086333,8.247869,0.941221,8.247869
0.7070,5.087419,8.186997,0.904894,8.186997
0.7080,5.088469,8.162234,0.904894,8.162234
0.7090,5.089483,8.173636,0.941221,8.173636
0.7100,5.090457,8.207189,1.000000,8.207189
0.7110,5.091392,8.240637,1.058779,8.240637
0.7120,5.092285,8.251463,1.095106,8.251463
0.7130,5.093135,8.225873,1.095106,8.225873
0.7140,5.093940,8.163762,1.058779,8.163762
0.7150,5.094700,8.079075,1.000000,8.079075
0.7160,5.095413,7.994174,0.941221,7.994174
0.7170,5.096078,7.931731,0.904894,7.931731
0.7180,5.096694,7.905382,0.904894,7.905382
0.7190,5.097260,7.915419,0.941221,7.915419
0.7200,5.097774,7.947621,1.000000,7.947621
0.7210,5.098237,7.979849,1.058779,7.979849
0.7220,5.098647,7.989611,1.095106,7.989611
0.7230,5.099004,7.962902,1.095106,7.962902
0.7240,5.099307,7.899862,1.058779,7.899862
0.7250,5.099556,7.814389,1.000000,7.814389
0.7260,5.099750,7.728777,0.941221,7.728777
0.7270,5.099889,7.665682,0.904894,7.665682
0.7280,5.099972,7.638757,0.904894,7.638757
0.7290,5.100000,7.648299,0.941221,7.648299
0.7300,5.099972,7.680259,1.000000,7.680259
0.7310,5.099889,7.712152,1.058779,7.712152
0.7320,5.099751,7.721802,1.095106,7.721802
0.7330,5.099557,7.695063,1.095106,7.695063
0.7340,5.099309,7.631998,1.058779,7.631998
0.7350,5.099006,7.546586,1.000000,7.546586
0.7360,5.098649,7.461278,0.941221,7.461278
0.7370,5.098239,7.398437,0.904894,7.398437
0.7380,5.097777,7.372034,0.904894,7.372034
0.7390,5.097262,7.382042,0.941221,7.382042
0.7400,5.096697,7.414626,1.000000,7.414626
0.7410,5.096082,7.447348,1.058779,7.447348
0.7420,5.095417,7.457661,1.095106,7.457661
0.7430,5.094704,7.431859,1.095106,7.431859
0.7440,5.093945,7.369762,1.058779,7.369762
0.7450,5.093140,7.285422,1.000000,7.285422
0.7460,5.092291,7.201220,0.941221,7.201220
0.7470,5.091398,7.139570,0.904894,7.139570
0.7480,5.090464,7.114508,0.904894,7.114508
0.7490,5.089490,7.125945,0.941221,7.125945
0.7500,5.088477,7.159939,1.000000,7.159939
0.7510,5.087428,7.194227,1.058779,7.194227
0.7520,5.086342,7.206095,1.095106,7.206095
0.7530,5.085223,7.182038,1.095106,7.182038
0.7540,5.084072,7.121848,1.058779,7.121848
0.7550,5.082890,7.039324,1.000000,7.039324
0.7560,5.081680,6.957039,0.941221,6.957039
0.7570,5.080443,6.897372,0.904894,6.897372
0.7580,5.079180,6.874433,0.904894,6.874433
0.7590,5.077894,6.887939,0.941221,6.887939
0.7600,5.076587,6.924247,1.000000,6.924247
0.7610,5.075260,6.960670,1.058779,6.960670
0.7620,5.073915,6.975087,1.095106,6.975087
0.7630,5.072553,6.953335,1.095106,6.953335
0.7640,5.071178,6.895553,1.058779,6.895553
0.7650,5.069790,6.815512,1.000000,6.815512
0.7660,5.068391,6.735895,0.941221,6.735895
0.7670,5.066983,6.678807,0.904894,6.678807
0.7680,5.065568,6.658475,0.904894,6.658475
0.7690,5.064147,6.674731,0.941221,6.674731
0.7700,5.062723,6.713709,1.000000,6.713709
0.7710,5.061296,6.753002,1.058779,6.753002
0.7720,5.059869,6.770218,1.095106,6.770218
0.7730,5.058443,6.751315,1.095106,6.751315
0.7740,5.057020,6.696353,1.058779,6.696353
0.7750,5.055600,6.619167,1.000000,6.619167
0.7760,5.054186,6.542520,0.941221,6.542520
0.7770,5.052779,6.488509,0.904894,6.488509
0.7780,5.051381,6.471176,0.904894,6.471176
0.7790,5.049992,6.490296,0.941221,6.490296
0.7800,5.048614,6.532416,1.000000,6.532416
0.7810,5.047249,6.574795,1.058779,6.574795
0.7820,5.045897,6.594951,1.095106,6.594951
0.7830,5.044559,6.579076,1.095106,6.579076
0.7840,5.043237,6.527350,1.058779,6.527350
0.7850,5.041932,6.453318,1.000000,6.453318
0.7860,5.040644,6.379645,0.941221,6.379645
0.7870,5.039374,6.328751,0.904894,6.328751
0.7880,5.038124,6.314422,0.904894,6.314422
0.7890,5.036894,6.336752,0.941221,6.336752
0.7900,5.035684,6.381878,1.000000,6.381878
0.7910,5.034496,6.427148,1.058779,6.427148
0.7920,5.033331,6.450329,1.095106,6.450329
0.7930,5.032187,6.437570,1.095106,6.437570
0.7940,5.031067,6.388758,1.058779,6.388758
0.7950,5.029970,6.317787,1.000000,6.317787
0.7960,5.028898,6.246990,0.941221,6.246990
0.7970,5.027850,6.199044,0.904894,6.199044
0.7980,5.026826,6.187536,0.904894,6.187536
0.7990,5.025827,6.212754,0.941221,6.212754
0.8000,5.024853,6.260640,1.000000,6.260640
0.8010,5.023905,6.308706,1.058779,6.308706
0.8020,5.022982,6.334668,1.095106,6.334668
0.8030,5.022084,6.324621,1.095106,6.324621
0.8040,5.021211,6.278295,1.058779,6.278295
0.8050,5.020364,6.209851,1.000000,6.209851
0.8060,5.019543,6.141771,0.941221,6.141771
0.8070,5.018746,6.096145,0.904894,6.096145
0.8080,5.017975,6.087173,0.904894,6.087173
0.8090,5.017229,6.114769,0.941221,6.114769
0.8100,5.016508,6.164973,1.000000,6.164973
0.8110,5.015811,6.215317,1.058779,6.215317
0.8120,5.015139,6.243489,1.095106,6.243489
0.8130,5.014490,6.235536,1.095106,6.235536
0.8140,5.013866,6.191400,1.058779,6.191400
0.8150,5.013265,6.125072,1.000000,6.125072
0.8160,5.012687,6.058802,0.941221,6.058802
0.8170,5.012132,6.015118,0.904894,6.015118
0.8180,5.011600,6.007949,0.904894,6.007949
0.8190,5.011089,6.037235,0.941221,6.037235
0.8200,5.010600,6.089111,1.000000,6.089111
0.8210,5.010133,6.141129,1.058779,6.141129
0.8220,5.009686,6.170853,1.095106,6.170853
0.8230,5.009260,6.164210,1.095106,6.164210
0.8240,5.008854,6.121396,1.058779,6.121396
0.8250,5.008468,6.056293,1.000000,6.056293
0.8260,5.008101,5.991309,0.941221,5.991309
0.8270,5.007752,5.948738,0.904894,5.948738
0.8280,5.007422,5.942646,0.904894,5.942646
0.8290,5.007109,5.972914,0.941221,5.972914
0.8300,5.006814,6.025695,1.000000,6.025695
0.8310,5.006536,6.078527,1.058779,6.078527
0.8320,5.006275,6.108946,1.095106,6.108946
0.8330,5.006030,6.103079,1.095106,6.103079
0.8340,5.005800,6.060855,1.058779,6.060855
0.8350,5.005586,5.996153,1.000000,5.996153
0.8360,5.005386,5.931502,0.941221,5.931502
0.8370,5.005201,5.889325,0.904894,5.889325
0.8380,5.005030,5.883447,0.904894,5.883447
0.8390,5.004873,5.913842,0.941221,5.913842
0.8400,5.004729,5.966669,1.000000,5.966669
0.8410,5.004597,6.019482,1.058779,6.019482
0.8420,5.004479,6.049730,1.095106,6.049730
0.8430,5.004372,6.043631,1.095106,6.043631
0.8440,5.004278,6.001179,1.058779,6.001179
0.8450,5.004195,5.936117,1.000000,5.936117
0.8460,5.004123,5.871056,0.941221,5.871056
0.8470,5.004062,5.828326,0.904894,5.828326
0.8480,5.004011,5.821823,0.904894,5.821823
0.8490,5.003971,5.851583,0.941221,5.851583
0.8500,5.003941,5.903602,1.000000,5.903602
0.8510,5.003920,5.955583,1.058779,5.955583
0.8520,5.003909,5.984953,1.095106,5.984953
0.8530,5.003907,5.977843,1.095106,5.977843
0.8540,5.003914,5.934343,1.058779,5.934343
0.8550,5.003930,5.868124,1.000000,5.868124
0.8560,5.003955,5.801850,0.941221,5.801850
0.8570,5.003987,5.757805,0.904894,5.757805
0.8580,5.004028,5.749900,0.904894,5.749900
0.8590,5.004077,5.778190,0.941221,5.778190
0.8600,5.004133,5.828814,1.000000,5.828814
0.8610,5.004197,5.879149,1.058779,5.879149
0.8620,5.004268,5.906896,1.095106,5.906896
0.8630,5.004347,5.898108,1.095106,5.898108
0.8640,5.004432,5.852826,1.058779,5.852826
0.8650,5.004525,5.784771,1.000000,5.784771
0.8660,5.004624,5.716610,0.941221,5.716610
0.8670,5.004730,5.670683,0.904894,5.670683
0.8680,5.004842,5.660689,0.904894,5.660689
0.8690,5.004961,5.686885,0.941221,5.686885
0.8700,5.005086,5.735354,1.000000,5.735354
0.8710,5.005218,5.783454,1.058779,5.783454
0.8720,5.005355,5.809005,1.095106,5.809005
0.8730,5.005499,5.798002,1.095106,5.798002
0.8740,5.005648,5.750226,1.058779,5.750226
0.8750,5.005804,5.679874,1.000000,5.679874
0.8760,5.005965,5.609203,0.941221,5.609203
0.8770,5.006131,5.560704,0.904894,5.560704
0.8780,5.006304,5.548245,0.904894,5.548245
0.8790,5.006481,5.571962,0.941221,5.571962
0.8800,5.006664,5.617783,1.000000,5.617783
0.8810,5.006853,5.663222,1.058779,5.663222
0.8820,5.007047,5.686132,1.095106,5.686132
0.8830,5.007245,5.672316,1.095106,5.672316
0.8840,5.007449,5.621845,1.058779,5.621845
0.8850,5.007658,5.548785,1.000000,5.548785
0.8860,5.007872,5.475286,0.941221,5.475286
0.8870,5.008091,5.423989,0.904894,5.423989
0.8880,5.008315,5.408819,0.904894,5.408819
0.8890,5.008543,5.429562,0.941221,5.429562
0.8900,5.008776,5.472572,1.000000,5.472572
0.8910,5.009014,5.515170,1.058779,5.515170
0.8920,5.009256,5.535073,1.095106,5.535073
0.8930,5.009503,5.518357,1.095106,5.518357
0.8940,5.009753,5.465020,1.058779,5.465020
0.8950,5.010008,5.388954,1.000000,5.388954
0.8960,5.010268,5.312591,0.941221,5.312591
0.8970,5.010531,5.258314,0.904894,5.258314
0.8980,5.010798,5.240115,0.904894,5.240115
0.8990,5.011069,5.257961,0.941221,5.257961
0.9000,5.011343,5.298053,1.000000,5.298053
0.9010,5.011622,5.337727,1.058779,5.337727
0.9020,5.011904,5.354678,1.095106,5.354678
0.9030,5.012189,5.335173,1.095106,5.335173
0.9040,5.012477,5.278845,1.058779,5.278845
0.9050,5.012769,5.199895,1.000000,5.199895
0.9060,5.013063,5.120568,0.941221,5.120568
0.9070,5.013361,5.063586,0.904894,5.063586
0.9080,5.013661,5.042557,0.904894,5.042557
0.9090,5.013963,5.057551,0.941221,5.057551
0.9100,5.014269,5.094836,1.000000,5.094836
0.9110,5.014576,5.131839,1.058779,5.131839
0.9120,5.014885,5.146049,1.095106,5.146049
0.9130,5.015197,5.123838,1.095106,5.123838
0.9140,5.015510,5.064871,1.058779,5.064871
0.9150,5.015825,4.983353,1.000000,4.983353
0.9160,5.016142,4.901555,0.941221,4.901555
0.9170,5.016459,4.841973,0.904894,4.841973
0.9180,5.016778,4.818548,0.904894,4.818548
0.9190,5.017098,4.831139,0.941221,4.831139
0.9200,5.017418,4.865923,1.000000,4.865923
0.9210,5.017739,4.900659,1.058779,4.900659
0.9220,5.018060,4.912645,1.095106,4.912645
0.9230,5.018381,4.888186,1.095106,4.888186
0.9240,5.018703,4.827104,1.058779,4.827104
0.9250,5.019024,4.743547,1.000000,4.743547
0.9260,5.019344,4.659593,0.941221,4.659593
0.9270,5.019664,4.598083,0.904894,4.598083
0.9280,5.019983,4.572759,0.904894,4.572759
0.9290,5.020300,4.583525,0.941221,4.583525
0.9300,5.020616,4.616593,1.000000,4.616593
0.9310,5.020931,4.649554,1.058779,4.649554
0.9320,5.021244,4.659948,1.095106,4.659948
0.9330,5.021555,4.633970,1.095106,4.633970
0.9340,5.021863,4.571413,1.058779,4.571413
0.9350,5.022169,4.486420,1.000000,4.486420
0.9360,5.022473,4.401183,0.941221,4.401183
0.9370,5.022773,4.338513,0.904894,4.338513
0.9380,5.023070,4.311969,0.904894,4.311969
0.9390,5.023364,4.321666,0.941221,4.321666
0.9400,5.023654,4.353792,1.000000,4.353792
0.9410,5.023940,4.385934,1.058779,4.385934
0.9420,5.024223,4.395595,1.095106,4.395595
0.9430,5.024500,4.368865,1.095106,4.368865
0.9440,5.024774,4.305716,1.058779,4.305716
0.9450,5.025042,4.220067,1.000000,4.220067
0.9460,5.025306,4.134576,0.941221,4.134576
0.9470,5.025564,4.071540,0.904894,4.071540
0.9480,5.025817,4.044881,0.904894,4.044881
0.9490,5.026064,4.054523,0.941221,4.054523
0.9500,5.026306,4.086567,1.000000,4.086567
0.9510,5.026541,4.118847,1.058779,4.118847
0.9520,5.026770,4.128618,1.095106,4.128618
0.9530,5.026992,4.102109,1.095106,4.102109
0.9540,5.027208,4.039466,1.058779,4.039466
0.9550,5.027418,3.954467,1.000000,3.954467
0.9560,5.027620,3.869634,0.941221,3.869634
0.9570,5.027814,3.807200,0.904894,3.807200
0.9580,5.028002,3.781277,0.904894,3.781277
0.9590,5.028182,3.791988,0.941221,3.791988
0.9600,5.028354,3.825158,1.000000,3.825158
0.9610,5.028519,3.858528,1.058779,3.858528
0.9620,5.028675,3.869658,1.095106,3.869658
0.9630,5.028823,3.844558,1.095106,3.844558
0.9640,5.028963,3.783412,1.058779,3.783412
0.9650,5.029095,3.700148,1.000000,3.700148
0.9660,5.029218,3.616988,0.941221,3.616988
0.9670,5.029332,3.556449,0.904894,3.556449
0.9680,5.029438,3.532581,0.904894,3.532581
0.9690,5.029534,3.545227,0.941221,3.545227
0.9700,5.029622,3.580633,1.000000,3.580633
0.9710,5.029701,3.616355,1.058779,3.616355
0.9720,5.029771,3.629948,1.095106,3.629948
0.9730,5.029831,3.607509,1.095106,3.607509
0.9740,5.029883,3.548945,1.058779,3.548945
0.9750,5.029925,3.468395,1.000000,3.468395
0.9760,5.029957,3.388128,0.941221,3.388128
0.9770,5.029981,3.330723,0.904894,3.330723
0.9780,5.029995,3.309849,0.904894,3.309849
0.9790,5.029999,3.325901,0.941221,3.325901
0.9800,5.029995,3.364658,1.000000,3.364658
0.9810,5.029981,3.403824,1.058779,3.403824
0.9820,5.029957,3.421002,1.095106,3.421002
0.9830,5.029925,3.402257,1.095106,3.402257
0.9840,5.029883,3.347516,1.058779,3.347516
0.9850,5.029831,3.270807,1.000000,3.270807
0.9860,5.029771,3.194656,0.941221,3.194656
0.9870,5.029701,3.141314,0.904894,3.141314
0.9880,5.029622,3.124885,0.904894,3.124885
0.9890,5.029534,3.145120,0.941221,3.145120
0.9900,5.029438,3.188483,1.000000,3.188483
0.9910,5.029332,3.232207,1.058779,3.232207
0.9920,5.029218,3.254010,1.095106,3.254010
0.9930,5.029095,3.240071,1.095106,3.240071
0.9940,5.028963,3.190291,1.058779,3.190291
0.9950,5.028823,3.118603,1.000000,3.118603
0.9960,5.028675,3.047474,0.941221,3.047474
0.9970,5.028519,2.999333,0.904894,2.999333
0.9980,5.028354,2.988107,0.904894,2.988107
0.9990,5.028182,3.013850,0.941221,3.013850
1.0000,5.028002,3.062611,1.000000,3.062611
1.0010,5.027814,3.111953,1.058779,3.111953
1.0020,5.027620,3.139356,1.095106,3.139356
1.0030,5.027417,3.131158,1.095106,3.131158
1.0040,5.027208,3.087251,1.058779,3.087251
1.0050,5.026992,3.021505,1.000000,3.021505
1.0060,5.026770,2.956366,0.941221,2.956366
1.0070,5.026541,2.914298,0.904894,2.914298
1.0080,5.026305,2.909362,0.904894,2.909362
1.0090,5.026064,2.941274,0.941221,2.941274
1.0100,5.025817,2.996304,1.000000,2.996304
1.0110,5.025564,3.052093,1.058779,3.052093
1.0120,5.025306,3.085985,1.095106,3.085985
1.0130,5.025042,3.084366,1.095106,3.084366
1.0140,5.024773,3.047031,1.058779,3.047031
1.0150,5.024500,2.987920,1.000000,2.987920
1.0160,5.024222,2.929543,0.941221,2.929543
1.0170,5.023940,2.894240,0.904894,2.894240
1.0180,5.023654,2.896062,0.904894,2.896062
1.0190,5.023364,2.934915,0.941221,2.934915
1.0200,5.023070,2.996987,1.000000,2.996987
1.0210,5.022773,3.059703,1.058779,3.059703
1.0220,5.022472,3.100733,1.095106,3.100733
1.0230,5.022169,3.106041,1.095106,3.106041
1.0240,5.021863,3.075989,1.058779,3.075989
1.0250,5.021554,3.024068,1.000000,3.024068
1.0260,5.021243,2.972954,0.941221,2.972954
1.0270,5.020930,2.944964,0.904894,2.944964
1.0280,5.020615,2.954053,0.904894,2.954053
1.0290,5.020299,3.000280,0.941221,3.000280
1.0300,5.019981,3.069683,1.000000,3.069683
1.0310,5.019662,3.139686,1.058779,3.139686
1.0320,5.019342,3.188085,1.095106,3.188085
1.0330,5.019021,3.200992,1.095106,3.200992
1.0340,5.018700,3.178275,1.058779,3.178275
1.0350,5.018378,3.133798,1.000000,3.133798
1.0360,5.018057,3.090171,0.941221,3.090171
1.0370,5.017735,3.069624,0.904894,3.069624
1.0380,5.017414,3.086208,0.904894,3.086208
1.0390,5.017093,3.139937,0.941221,3.139937
1.0400,5.016773,3.216739,1.000000,3.216739
1.0410,5.016454,3.294309,1.058779,3.294309
1.0420,5.016136,3.350256,1.095106,3.350256
1.0430,5.015819,3.370464,1.095106,3.370464
1.0440,5.015503,3.355174,1.058779,3.355174
1.0450,5.015189,3.318113,1.000000,3.318113
1.0460,5.014876,3.281895,0.941221,3.281895
1.0470,5.014566,3.268687,0.904894,3.268687
1.0480,5.014257,3.292675,0.904894,3.292675
1.0490,5.013951,3.353720,0.941221,3.353720
1.0500,5.013647,3.437781,1.000000,3.437781
1.0510,5.013346,3.522633,1.058779,3.522633
1.0520,5.013047,3.585837,1.095106,3.585837
1.0530,5.012750,3.613245,1.095106,3.613245
1.0540,5.012457,3.605060,1.058779,3.605060
1.0550,5.012166,3.575123,1.000000,3.575123
1.0560,5.011879,3.545881,0.941221,3.545881
1.0570,5.011595,3.539853,0.904894,3.539853
1.0580,5.011314,3.570654,0.904894,3.570654
1.0590,5.011036,3.638601,0.941221,3.638601
1.0600,5.010762,3.729573,1.000000,3.729573
1.0610,5.010491,3.821173,1.058779,3.821173
1.0620,5.010224,3.891035,1.095106,3.891035
1.0630,5.009961,3.925076,1.095106,3.925076
1.0640,5.009701,3.923488,1.058779,3.923488
1.0650,5.009446,3.900115,1.000000,3.900115
1.0660,5.009194,3.877323,0.941221,3.877323
1.0670,5.008946,3.877478,0.904894,3.877478
1.0680,5.008702,3.914480,0.904894,3.914480
1.0690,5.008462,3.988640,0.941221,3.988640
1.0700,5.008226,4.085687,1.000000,4.085687
1.0710,5.007994,4.183317,1.058779,4.183317
1.0720,5.007766,4.259028,1.095106,4.259028
1.0730,5.007543,4.299011,1.095106,4.299011
1.0740,5.007323,4.303068,1.058779,4.303068
1.0750,5.007108,4.285312,1.000000,4.285312
1.0760,5.006897,4.267964,0.941221,4.267964
1.0770,5.006690,4.273679,0.904894,4.273679
1.0780,5.006487,4.315985,0.904894,4.315985
1.0790,5.006288,4.395265,0.941221,4.395265
1.0800,5.006094,4.497476,1.000000,4.497476
1.0810,5.005904,4.600011,1.058779,4.600011
1.0820,5.005717,4.680542,1.095106,4.680542
1.0830,5.005535,4.725283,1.095106,4.725283
1.0840,5.005358,4.734045,1.058779,4.734045
1.0850,5.005184,4.720845,1.000000,4.720845
1.0860,5.005014,4.707733,0.941221,4.707733
1.0870,5.004849,4.717646,0.904894,4.717646
1.0880,5.004687,4.764230,0.904894,4.764230
1.0890,5.004529,4.847575,0.941221,4.847575
1.0900,5.004376,4.953566,1.000000,4.953566
1.0910,5.004226,5.059891,1.058779,5.059891
1.0920,5.004080,5.144103,1.095106,5.144103
1.0930,5.003938,5.192277,1.095106,5.192277
1.0940,5.003799,5.204325,1.058779,5.204325
1.0950,5.003664,5.194193,1.000000,5.194193
1.0960,5.003533,5.184394,0.941221,5.184394
1.0970,5.003406,5.197191,0.904894,5.197191
1.0980,5.003282,5.246611,0.904894,5.246611
1.0990,5.003162,5.332461,0.941221,5.332461
1.1000,5.003045,5.441125,1.000000,5.441125
1.1010,5.002932,5.549786,1.058779,5.549786
1.1020,5.002822,5.636127,1.095106,5.636127
1.1030,5.002715,5.686403,1.095106,5.686403
1.1040,5.002611,5.700362,1.058779,5.700362
1.1050,5.002511,5.692031,1.000000,5.692031
1.1060,5.002413,5.683814,0.941221,5.683814
1.1070,5.002319,5.698103,0.904894,5.698103
1.1080,5.002228,5.748801,0.904894,5.748801
1.1090,5.002139,5.835951,0.941221,5.835951
1.1100,5.002054,5.945470,1.000000,5.945470
1.1110,5.001971,6.055072,1.058779,6.055072
1.1120,5.001891,6.142228,1.095106,6.142228
1.1130,5.001814,6.193111,1.095106,6.193111
1.1140,5.001739,6.207470,1.058779,6.207470
1.1150,5.001667,6.199404,1.000000,6.199404
1.1160,5.001598,6.191312,0.941221,6.191312
1.1170,5.001530,6.205588,0.904894,6.205588
1.1180,5.001466,6.256177,0.904894,6.256177
1.1190,5.001403,6.342917,0.941221,6.342917
1.1200,5.001343,6.451959,1.000000,6.451959
1.1210,5.001285,6.560947,1.058779,6.560947
1.1220,5.001229,6.647276,1.095106,6.647276
1.1230,5.001175,6.697158,1.095106,6.697158
1.1240,5.001123,6.710513,1.058779,6.710513
1.1250,5.001073,6.701218,1.000000,6.701218
1.1260,5.001025,6.691640,0.941221,6.691640
1.1270,5.000979,6.704404,0.904894,6.704404
1.1280,5.000935,6.753318,0.904894,6.753318
1.1290,5.000892,6.838175,0.941221,6.838175
1.1300,5.000851,6.945311,1.000000,6.945311
1.1310,5.000812,7.052121,1.058779,7.052121
1.1320,5.000774,7.136149,1.095106,7.136149
1.1330,5.000738,7.183551,1.095106,7.183551
1.1340,5.000703,7.194347,1.058779,7.194347
1.1350,5.000669,7.182431,1.000000,7.182431
1.1360,5.000637,7.170077,0.941221,7.170077
1.1370,5.000607,7.179777,0.904894,7.179777
1.1380,5.000578,7.225407,0.904894,7.225407
1.1390,5.000549,7.307096,0.941221,7.307096
1.1400,5.000523,7.410809,1.000000,7.410809
1.1410,5.000497,7.514010,1.058779,7.514010
1.1420,5.000472,7.594460,1.095106,7.594460
1.1430,5.000449,7.638131,1.095106,7.638131
1.1440,5.000426,7.644929,1.058779,7.644929
1.1450,5.000405,7.628899,1.000000,7.628899
1.1460,5.000384,7.612456,0.941221,7.612456
1.1470,5.000365,7.617842,0.904894,7.617842
1.1480,5.000346,7.659101,0.904894,7.659101
1.1490,5.000328,7.736241,0.941221,7.736241
1.1500,5.000311,7.835221,1.000000,7.835221
1.1510,5.000295,7.933771,1.058779,7.933771
1.1520,5.000279,8.009261,1.095106,8.009261
1.1530,5.000265,8.047935,1.095106,8.047935
1.1540,5.000251,8.049620,1.058779,8.049620
1.1550,5.000237,8.028428,1.000000,8.028428
1.1560,5.000224,8.006436,0.941221,8.006436
1.1570,5.000212,8.006509,0.904894,8.006509
1.1580,5.000201,8.042264,0.904894,8.042264
1.1590,5.000190,8.113774,0.941221,8.113774
1.1600,5.000179,8.206973,1.000000,8.206973
1.1610,5.000170,8.299653,1.058779,8.299653
1.1620,5.000160,8.369154,1.095106,8.369154
1.1630,5.000151,8.401779,1.095106,8.401779
1.1640,5.000143,8.397433,1.058779,8.397433
1.1650,5.000135,8.370015,1.000000,8.370015
1.1660,5.000127,8.341748,0.941221,8.341748
1.1670,5.000120,8.335395,0.904894,8.335395
1.1680,5.000113,8.364735,0.904894,8.364735
1.1690,5.000107,8.429642,0.941221,8.429642
1.1700,5.000100,8.516390,1.000000,8.516390
1.1710,5.000095,8.602376,1.058779,8.602376
1.1720,5.000089,8.665226,1.095106,8.665226
1.1730,5.000084,8.691070,1.095106,8.691070
1.1740,5.000079,8.679840,1.058779,8.679840
1.1750,5.000074,8.645472,1.000000,8.645472
1.1760,5.000070,8.610378,0.941221,8.610378
1.1770,5.000066,8.597011,0.904894,8.597011
1.1780,5.000062,8.619264,0.904894,8.619264
1.1790,5.000058,8.677053,0.941221,8.677053
1.1800,5.000054,8.756625,1.000000,8.756625
1.1810,5.000051,8.835453,1.058779,8.835453
1.1820,5.000048,8.891067,1.095106,8.891067
1.1830,5.000045,8.909574,1.095106,8.909574
1.1840,5.000042,8.890946,1.058779,8.890946
1.1850,5.000040,8.849426,1.000000,8.849426
1.1860,5.000037,8.806911,0.941221,8.806911
1.1870,5.000035,8.786125,0.904894,8.786125
1.1880,5.000033,8.801010,0.904894,8.801010
1.1890,5.000031,8.851324,0.941221,8.851324
1.1900,5.000029,8.923437,1.000000,8.923437
1.1910,5.000027,8.994883,1.058779,8.994883
1.1920,5.000025,9.042962,1.095106,9.042962
1.1930,5.000023,9.054069,1.095106,9.054069
1.1940,5.000022,9.028064,1.058779,9.028064
1.1950,5.000020,8.978787,1.000000,8.978787
1.1960,5.000019,8.928915,0.941221,8.928915
1.1970,5.000018,8.900646,0.904894,8.900646
1.1980,5.000017,8.908034,0.904894,8.908034
1.1990,5.000016,8.951026,0.941221,8.951026
1.2000,5.000015,9.015645,1.000000,9.015645
1.2010,5.000014,9.079533,1.058779,9.079533
1.2020,5.000013,9.120290,1.095106,9.120290
1.2030,5.000012,9.124063,1.095106,9.124063
1.2040,5.000011,9.090651,1.058779,9.090651
1.2050,5.000010,9.034167,1.000000,9.034167
1.2060,5.000010,8.976841,0.941221,8.976841
1.2070,5.000009,8.941459,0.904894,8.941459
1.2080,5.000008,8.941518,0.904894,8.941518
1.2090,5.000008,8.977273,0.941221,8.977273
1.2100,5.000007,9.034774,1.000000,9.034774
1.2110,5.000007,9.091715,1.058779,9.091715
1.2120,5.000006,9.125267,1.095106,9.125267
1.2130,5.000006,9.122005,1.095106,9.122005
1.2140,5.000005,9.081657,1.058779,9.081657
1.2150,5.000005,9.018216,1.000000,9.018216
1.2160,5.000005,8.954089,0.941221,8.954089
1.2170,5.000004,8.911756,0.904894,8.911756
1.2180,5.000004,8.905199,0.904894,8.905199
1.2190,5.000004,8.934296,0.941221,8.934296
1.2200,5.000003,8.985117,1.000000,8.985117
1.2210,5.000003,9.035428,1.058779,9.035428
1.2220,5.000003,9.062573,1.095106,9.062573
1.2230,5.000003,9.052875,1.095106,9.052875
1.2240,5.000003,9.006267,1.058779,9.006267
1.2250,5.000002,8.936546,1.000000,8.936546
1.2260,5.000002,8.866326,0.941221,8.866326
1.2270,5.000002,8.817862,0.904894,8.817862
1.2280,5.000002,8.805229,0.904894,8.805229
1.2290,5.000002,8.828477,0.941221,8.828477
1.2300,5.000002,8.873524,1.000000,8.873524
1.2310,5.000001,8.918063,1.058779,8.918063
1.2320,5.000001,8.939514,1.095106,8.939514
1.2330,5.000001,8.924123,1.095106,8.924123
1.2340,5.000001,8.872035,1.058779,8.872035
1.2350,5.000001,8.796942,1.000000,8.796942
1.2360,5.000001,8.721356,0.941221,8.721356
1.2370,5.000001,8.667747,0.904894,8.667747
1.2380,5.000001,8.649992,0.904894,8.649992
1.2390,5.000001,8.668113,0.941221,8.668113
1.2400,5.000001,8.708355,1.000000,8.708355
1.2410,5.000001,8.748020,1.058779,8.748020
1.2420,5.000001,8.764801,1.095106,8.764801
1.2430,5.000001,8.744993,1.095106,8.744993
1.2440,5.000001,8.688338,1.058779,8.688338
1.2450,5.000000,8.608900,1.000000,8.608900
1.2460,5.000000,8.529022,0.941221,8.529022
1.2470,5.000000,8.471291,0.904894,8.471291
1.2480,5.000000,8.449408,0.904894,8.449408
1.2490,5.000000,8.463691,0.941221,8.463691
1.2500,5.000000,8.499948,1.000000,8.499948
1.2510,5.000000,8.535976,1.058779,8.535976
1.2520,5.000000,8.549188,1.095106,8.549188
1.2530,5.000000,8.525872,1.095106,8.525872
1.2540,5.000000,8.465913,1.058779,8.465913
1.2550,5.000000,8.383091,1.000000,8.383091
1.2560,5.000000,8.300201,0.941221,8.300201
1.2570,5.000000,8.239435,0.904894,8.239435
1.2580,5.000000,8.214690,0.904894,8.214690
1.2590,5.000000,8.226116,0.941221,8.226116
1.2600,5.000000,8.259686,1.000000,8.259686
1.2610,5.000000,8.293164,1.058779,8.293164
1.2620,5.000000,8.304045,1.095106,8.304045
1.2630,5.000000,8.278308,1.095106,8.278308
1.2640,5.000000,8.216175,1.058779,8.216175
1.2650,5.000000,8.131265,1.000000,8.131265
1.2660,5.000000,8.046315,0.941221,8.046315
1.2670,5.000000,7.983670,0.904894,7.983670
1.2680,5.000000,7.957295,0.904894,7.957295
1.2690,5.000000,7.967056,0.941221,7.967056
1.2700,5.000000,7.999248,1.000000,7.999248
1.2710,5.000000,8.031212,1.058779,8.031212
1.2720,5.000000,8.040782,1.095106,8.040782
1.2730,5.000000,8.013897,1.095106,8.013897
1.2740,5.000000,7.950690,1.058779,7.950690
1.2750,5.000000,7.864892,1.000000,7.864892
1.2760,5.000000,7.779146,0.941221,7.779146
1.2770,5.000000,7.715738,0.904894,7.715738
1.2780,5.000000,7.688782,0.904894,7.688782
1.2790,5.000000,7.698045,0.941221,7.698045
1.2800,5.000000,7.729765,1.000000,7.729765
1.2810,5.000000,7.761548,1.058779,7.761548
1.2820,5.000000,7.770863,1.095106,7.770863
1.2830,5.000000,7.743854,1.095106,7.743854
1.2840,5.000000,7.680728,1.058779,7.680728
1.2850,5.000000,7.595217,1.000000,7.595217
1.2860,5.000000,7.509597,0.941221,7.509597
1.2870,5.000000,7.446481,0.904894,7.446481
1.2880,5.000000,7.420080,0.904894,7.420080
1.2890,5.000000,7.429835,0.941221,7.429835
1.2900,5.000000,7.462209,1.000000,7.462209
1.2910,5.000000,7.494699,1.058779,7.494699
1.2920,5.000000,7.504975,1.095106,7.504975
1.2930,5.000000,7.478946,1.095106,7.478946
1.2940,5.000000,7.416739,1.058779,7.416739
1.2950,5.000000,7.332165,1.000000,7.332165
1.2960,5.000000,7.247770,0.941221,7.247770
1.2970,5.000000,7.186027,0.904894,7.186027
1.2980,5.000000,7.160839,0.904894,7.160839
1.2990,5.000000,7.172080,0.941221,7.172080
1.3000,5.000000,7.205908,1.000000,7.205908
1.3010,5.000000,7.240124,1.058779,7.240124
1.3020,5.000000,7.251935,1.095106,7.251935
1.3030,5.000000,7.227701,1.095106,7.227701
1.3040,5.000000,7.167233,1.058779,7.167233
1.3050,5.006218,7.090830,1.000000,7.090830
1.3060,5.006571,7.008800,0.941221,7.008800
1.3070,5.006941,6.949368,0.904894,6.949368
1.3080,5.007327,6.926632,0.904894,6.926632
1.3090,5.007730,6.940476,0.941221,6.940476
1.3100,5.008152,6.977002,1.000000,6.977002
1.3110,5.008591,7.013841,1.058779,7.013841
1.3120,5.009049,7.028437,1.095106,7.028437
1.3130,5.009526,7.007102,1.095106,7.007102
1.3140,5.010023,6.949495,1.058779,6.949495
1.3150,5.010540,6.869954,1.000000,6.869954
1.3160,5.011077,6.790581,0.941221,6.790581
1.3170,5.011635,6.734046,0.904894,6.734046
1.3180,5.012215,6.714068,0.904894,6.714068
1.3190,5.012816,6.730689,0.941221,6.730689
1.3200,5.013440,6.770200,1.000000,6.770200
1.3210,5.014086,6.809875,1.058779,6.809875
1.3220,5.014754,6.827516,1.095106,6.827516
1.3230,5.015446,6.809065,1.095106,6.809065
1.3240,5.016162,6.754529,1.058779,6.754529
1.3250,5.016901,6.678093,1.000000,6.678093
1.3260,5.017664,6.601879,0.941221,6.601879
1.3270,5.018452,6.548318,0.904894,6.548318
1.3280,5.019263,6.531585,0.904894,6.531585
1.3290,5.020100,6.551283,0.941221,6.551283
1.3300,5.020961,6.594009,1.000000,6.594009
1.3310,5.021847,6.636897,1.058779,6.636897
1.3320,5.022757,6.657784,1.095106,6.657784
1.3330,5.023692,6.642541,1.095106,6.642541
1.3340,5.024652,6.591274,1.058779,6.591274
1.3350,5.025637,6.517984,1.000000,6.517984
1.3360,5.026646,6.444908,0.941221,6.444908
1.3370,5.027680,6.394742,0.904894,6.394742
1.3380,5.028738,6.381120,0.904894,6.381120
1.3390,5.029819,6.404137,0.941221,6.404137
1.3400,5.030924,6.450034,1.000000,6.450034
1.3410,5.032053,6.496121,1.058779,6.496121
1.3420,5.033203,6.520148,1.095106,6.520148
1.3430,5.034377,6.508211,1.095106,6.508211
1.3440,5.035571,6.460035,1.058779,6.460035
1.3450,5.036787,6.389809,1.000000,6.389809
1.3460,5.038024,6.319972,0.941221,6.319972
1.3470,5.039280,6.272799,0.904894,6.272799
1.3480,5.040555,6.262201,0.904894,6.262201
1.3490,5.041848,6.288358,0.941221,6.288358
1.3500,5.043158,6.337157,1.000000,6.337157
1.3510,5.044485,6.386152,1.058779,6.386152
1.3520,5.045827,6.413170,1.095106,6.413170
1.3530,5.047183,6.403860,1.095106,6.403860
1.3540,5.048553,6.358655,1.058779,6.358655
1.3550,5.049934,6.291209,1.000000,6.291209
1.3560,5.051327,6.224000,0.941221,6.224000
1.3570,5.052728,6.179383,0.904894,6.179383
1.3580,5.054138,6.171477,0.904894,6.171477
1.3590,5.055555,6.200099,0.941221,6.200099
1.3600,5.056977,6.251376,1.000000,6.251376
1.3610,5.058404,6.302917,1.058779,6.302917
1.3620,5.059832,6.332166,1.095106,6.332166
1.3630,5.061262,6.325243,1.095106,6.325243
1.3640,5.062690,6.282210,1.058779,6.282210
1.3650,5.064117,6.216871,1.000000,6.216871
1.3660,5.065540,6.151809,0.941221,6.151809
1.3670,5.066956,6.109222,0.904894,6.109222
1.3680,5.068366,6.103259,0.904894,6.103259
1.3690,5.069767,6.133793,0.941221,6.133793
1.3700,5.071156,6.186750,1.000000,6.186750
1.3710,5.072533,6.239934,1.058779,6.239934
1.3720,5.073896,6.270905,1.095106,6.270905
1.3730,5.075242,6.265499,1.095106,6.265499
1.3740,5.076570,6.223898,1.058779,6.223898
1.3750,5.077879,6.160047,1.000000,6.160047
1.3760,5.079166,6.096120,0.941221,6.096120
1.3770,5.080429,6.054692,0.904894,6.054692
1.3780,5.081667,6.049785,0.904894,6.049785
1.3790,5.082879,6.081258,0.941221,6.081258
1.3800,5.084061,6.135269,1.000000,6.135269
1.3810,5.085213,6.189249,1.058779,6.189249
1.3820,5.086333,6.220796,1.095106,6.220796
1.3830,5.087419,6.216097,1.095106,6.216097
1.3840,5.088469,6.174970,1.058779,6.174970
1.3850,5.089483,6.111538,1.000000,6.111538
1.3860,5.090457,6.047986,0.941221,6.047986
1.3870,5.091392,6.007042,0.904894,6.007042
1.3880,5.092285,6.002186,0.904894,6.002186
1.3890,5.093135,6.033684,0.941221,6.033684
1.3900,5.093940,6.087616,1.000000,6.087616
1.3910,5.094700,6.141490,1.058779,6.141490
1.3920,5.095413,6.172875,1.095106,6.172875
1.3930,5.096078,6.167767,1.095106,6.167767
1.3940,5.096694,6.126300,1.058779,6.126300
1.3950,5.097260,6.062409,1.000000,6.062409
1.3960,5.097774,5.998304,0.941221,5.998304
1.3970,5.098237,5.956489,0.904894,5.956489
1.3980,5.098647,5.951097,0.904894,5.951097
1.3990,5.099004,5.981658,0.941221,5.981658
1.4000,5.099307,6.034724,1.000000,6.034724
1.4010,5.099556,6.087490,1.058779,6.087490
1.4020,5.099750,6.117849,1.095106,6.117849
1.4030,5.099889,6.111464,1.095106,6.111464
1.4040,5.099972,6.068770,1.058779,6.068770
1.4050,5.100000,6.003329,1.000000,6.003329
1.4060,5.099972,5.937854,0.941221,5.937854
1.4070,5.099889,5.894574,0.904894,5.894574
1.4080,5.099751,5.887461,0.904894,5.887461
1.4090,5.099557,5.916458,0.941221,5.916458
1.4100,5.099309,5.967608,1.000000,5.967608
1.4110,5.099006,6.018656,1.058779,6.018656
1.4120,5.098649,6.047030,1.095106,6.047030
1.4130,5.098239,6.038778,1.095106,6.038778
1.4140,5.097777,5.994001,1.058779,5.994001
1.4150,5.097262,5.926596,1.000000,5.926596
1.4160,5.096697,5.858862,0.941221,5.858862
1.4170,5.096082,5.813316,0.904894,5.813316
1.4180,5.095417,5.803901,0.904894,5.803901
1.4190,5.094704,5.830551,0.941221,5.830551
1.4200,5.093945,5.879357,1.000000,5.879357
1.4210,5.093140,5.927934,1.058779,5.927934
1.4220,5.092291,5.953784,1.095106,5.953784
1.4230,5.091398,5.943074,1.095106,5.943074
1.4240,5.090464,5.895689,1.058779,5.895689
1.4250,5.089490,5.825508,1.000000,5.825508
1.4260,5.088477,5.755330,0.941221,5.755330
1.4270,5.087428,5.706937,0.904894,5.706937
1.4280,5.086342,5.694835,0.904894,5.694835
1.4290,5.085223,5.718671,0.941221,5.718671
1.4300,5.084072,5.764670,1.000000,5.764670
1.4310,5.082890,5.810380,1.058779,5.810380
1.4320,5.081680,5.833350,1.095106,5.833350
1.4330,5.080443,5.819692,1.095106,5.819692
1.4340,5.079180,5.769374,1.058779,5.769374
1.4350,5.077894,5.696373,1.000000,5.696373
1.4360,5.076587,5.622961,0.941221,5.622961
1.4370,5.075260,5.571739,0.904894,5.571739
1.4380,5.073915,5.556557,0.904894,5.556557
1.4390,5.072553,5.577402,0.941221,5.577402
1.4400,5.071178,5.620425,1.000000,5.620425
1.4410,5.069790,5.663097,1.058779,5.663097
1.4420,5.068391,5.682982,1.095106,5.682982
1.4430,5.066983,5.666363,1.095106,5.666363
1.4440,5.065568,5.612941,1.058779,5.612941
1.4450,5.064147,5.536920,1.000000,5.536920
1.4460,5.062723,5.460454,0.941221,5.460454
1.4470,5.061296,5.406214,0.904894,5.406214
1.4480,5.059869,5.388007,0.904894,5.388007
1.4490,5.058443,5.405833,0.941221,5.405833
1.4500,5.057020,5.445769,1.000000,5.445769
1.4510,5.055600,5.485411,1.058779,5.485411
1.4520,5.054186,5.502304,1.095106,5.502304
1.4530,5.052779,5.482663,1.095106,5.482663
1.4540,5.051381,5.426360,1.058779,5.426360
1.4550,5.049992,5.347256,1.000000,5.347256
1.4560,5.048614,5.268009,0.941221,5.268009
1.4570,5.047249,5.210797,0.904894,5.210797
1.4580,5.045897,5.189674,0.904894,5.189674
1.4590,5.044559,5.204660,0.941221,5.204660
1.4600,5.043237,5.241752,1.000000,5.241752
1.4610,5.041932,5.278592,1.058779,5.278592
1.4620,5.040644,5.292738,1.095106,5.292738
1.4630,5.039374,5.270402,1.095106,5.270402
1.4640,5.038124,5.211344,1.058779,5.211344
1.4650,5.036894,5.129626,1.000000,5.129626
1.4660,5.035684,5.047643,0.941221,5.047643
1.4670,5.034496,4.987990,0.904894,4.987990
1.4680,5.033331,4.964375,0.904894,4.964375
1.4690,5.032187,4.976794,0.941221,4.976794
1.4700,5.031067,5.011489,1.000000,5.011489
1.4710,5.029970,5.045916,1.058779,5.045916
1.4720,5.028898,5.057749,1.095106,5.057749
1.4730,5.027850,5.032978,1.095106,5.032978
1.4740,5.026826,4.971818,1.058779,4.971818
1.4750,5.025827,4.887923,1.000000,4.887923
1.4760,5.024853,4.803828,0.941221,4.803828
1.4770,5.023905,4.742075,0.904894,4.742075
1.4780,5.022982,4.716375,0.904894,4.716375
1.4790,5.022084,4.726883,0.941221,4.726883
1.4800,5.021211,4.759722,1.000000,4.759722
1.4810,5.020364,4.792353,1.058779,4.792353
1.4820,5.019543,4.802393,1.095106,4.802393
1.4830,5.018746,4.776095,1.095106,4.776095
1.4840,5.017975,4.713163,1.058779,4.713163
1.4850,5.017229,4.627722,1.000000,4.627722
1.4860,5.016508,4.542083,0.941221,4.542083
1.4870,5.015811,4.478921,0.904894,4.478921
1.4880,5.015139,4.451944,0.904894,4.451944
1.4890,5.014490,4.461181,0.941221,4.461181
1.4900,5.013866,4.492839,1.000000,4.492839
1.4910,5.013265,4.524410,1.058779,4.524410
1.4920,5.012687,4.533433,1.095106,4.533433
1.4930,5.012132,4.506193,1.095106,4.506193
1.4940,5.011600,4.442430,1.058779,4.442430
1.4950,5.011089,4.356181,1.000000,4.356181
1.4960,5.010600,4.270042,0.941221,4.270042
1.4970,5.010133,4.206260,0.904894,4.206260
1.4980,5.009686,4.178731,0.904894,4.178731
1.4990,5.009260,4.187737,0.941221,4.187737
1.5000,5.008854,4.218999,1.000000,4.218999
1.5010,5.008468,4.250367,1.058779,4.250367
1.5020,5.008101,4.259255,1.095106,4.259255
1.5030,5.007752,4.232030,1.095106,4.232030
1.5040,5.007422,4.168345,1.058779,4.168345
1.5050,5.007109,4.082341,1.000000,4.082341
1.5060,5.006814,3.996348,0.941221,3.996348
1.5070,5.006536,3.933033,0.904894,3.933033
1.5080,5.006275,3.905953,0.904894,3.905953
1.5090,5.006030,3.915478,0.941221,3.915478
1.5100,5.005800,3.947589,1.000000,3.947589
1.5110,5.005586,3.979700,1.058779,3.979700
1.5120,5.005386,3.989446,1.095106,3.989446
1.5130,5.005201,3.963297,1.095106,3.963297
1.5140,5.005030,3.900745,1.058779,3.900745
1.5150,5.004873,3.815982,1.000000,3.815982
1.5160,5.004729,3.731333,0.941221,3.731333
1.5170,5.004597,3.669398,0.904894,3.669398
1.5180,5.004479,3.643973,0.904894,3.643973
1.5190,5.004372,3.655123,0.941221,3.655123
1.5200,5.004278,3.688910,1.000000,3.688910
1.5210,5.004195,3.723049,1.058779,3.723049
1.5220,5.004123,3.734859,1.095106,3.734859
1.5230,5.004062,3.710585,1.095106,3.710585
1.5240,5.004011,3.650456,1.058779,3.650456
1.5250,5.003971,3.568014,1.000000,3.568014
1.5260,5.003941,3.485856,0.941221,3.485856
1.5270,5.003920,3.426476,0.904894,3.426476
1.5280,5.003909,3.403763,0.904894,3.403763
1.5290,5.003907,3.417789,0.941221,3.417789
1.5300,5.003914,3.454456,1.000000,3.454456
1.5310,5.003930,3.491503,1.058779,3.491503
1.5320,5.003955,3.506548,1.095106,3.506548
1.5330,5.003987,3.485553,1.095106,3.485553
1.5340,5.004028,3.428757,1.058779,3.428757
1.5350,5.004077,3.349799,1.000000,3.349799
1.5360,5.004133,3.271199,0.941221,3.271199
1.5370,5.004197,3.215604,0.904894,3.215604
1.5380,5.004268,3.196695,0.904894,3.196695
1.5390,5.004347,3.214594,0.941221,3.214594
1.5400,5.004432,3.255293,1.000000,3.255293
1.5410,5.004525,3.296596,1.058779,3.296596
1.5420,5.004624,3.315831,1.095106,3.315831
1.5430,5.004730,3.299254,1.095106,3.299254
1.5440,5.004842,3.246821,1.058779,3.246821
1.5450,5.004961,3.172403,1.000000,3.172403
1.5460,5.005086,3.098578,0.941221,3.098578
1.5470,5.005218,3.047799,0.904894,3.047799
1.5480,5.005355,3.033663,0.904894,3.033663
1.5490,5.005499,3.056634,0.941221,3.056634
1.5500,5.005648,3.102433,1.000000,3.102433
1.5510,5.005804,3.148909,1.058779,3.148909
1.5520,5.005965,3.173364,1.095106,3.173364
1.5530,5.006131,3.162228,1.095106,3.162228
1.5540,5.006304,3.115271,1.058779,3.115271
1.5550,5.006481,3.046440,1.000000,3.046440
1.5560,5.006664,2.978280,0.941221,2.978280
1.5570,5.006853,2.933125,0.904894,2.933125
1.5580,5.007047,2.924933,0.904894,2.924933
1.5590,5.007245,2.953760,0.941221,2.953760
1.5600,5.007449,3.005573,1.000000,3.005573
1.5610,5.007658,3.058214,1.058779,3.058214
1.5620,5.007872,3.088810,1.095106,3.088810
1.5630,5.008091,3.083875,1.095106,3.083875
1.5640,5.008315,3.043229,1.058779,3.043229
1.5650,5.008543,2.980831,1.000000,2.980831
1.5660,5.008776,2.919181,0.941221,2.919181
1.5670,5.009014,2.880583,0.904894,2.880583
1.5680,5.009256,2.878974,0.904894,2.878974
1.5690,5.009503,2.914463,0.941221,2.914463
1.5700,5.009753,2.973063,1.000000,2.973063
1.5710,5.010008,3.032376,1.058779,3.032376
1.5720,5.010268,3.069864,1.095106,3.069864
1.5730,5.010531,3.071927,1.095106,3.071927
1.5740,5.010798,3.038358,1.058779,3.038358
1.5750,5.011069,2.982988,1.000000,2.982988
1.5760,5.011343,2.928180,0.941221,2.928180
1.5770,5.011622,2.896783,0.904894,2.896783
1.5780,5.011904,2.902406,0.904894,2.902406
1.5790,5.012189,2.944992,0.941221,2.944992
1.5800,5.012477,3.010934,1.000000,3.010934
1.5810,5.012769,3.077491,1.058779,3.077491
1.5820,5.013063,3.122422,1.095106,3.122422
1.5830,5.013361,3.131671,1.095106,3.131671
1.5840,5.013661,3.105529,1.058779,3.105529
1.5850,5.013963,3.057377,1.000000,3.057377
1.5860,5.014269,3.010202,0.941221,3.010202
1.5870,5.014576,2.986116,0.904894,2.986116
1.5880,5.014885,2.999201,0.904894,2.999201
1.5890,5.015197,3.049405,0.941221,3.049405
1.5900,5.015510,3.122701,1.000000,3.122701
1.5910,5.015825,3.196806,1.058779,3.196806
1.5920,5.016142,3.249270,1.095106,3.249270
1.5930,5.016459,3.266061,1.095106,3.266061
1.5940,5.016778,3.247251,1.058779,3.247251
1.5950,5.017098,3.206699,1.000000,3.206699
1.5960,5.017418,3.167018,0.941221,3.167018
1.5970,5.017739,3.150442,0.904894,3.150442
1.5980,5.018060,3.170964,0.904894,3.170964
1.5990,5.018381,3.228559,0.941221,3.228559
1.6000,5.018703,3.309335,1.000000,3.309335
1.6010,5.019024,3.390793,1.058779,3.390793
1.6020,5.019344,3.450596,1.095106,3.450596
1.6030,5.019664,3.474779,1.095106,3.474779
1.6040,5.019983,3.463367,1.058779,3.463367
1.6050,5.020300,3.430146,1.000000,3.430146
1.6060,5.020616,3.397554,0.941221,3.397554
1.6070,5.020931,3.388271,0.904894,3.388271
1.6080,5.021244,3.416033,0.904894,3.416033
1.6090,5.021555,3.480751,0.941221,3.480751
1.6100,5.021863,3.568693,1.000000,3.568693
1.6110,5.022169,3.657105,1.058779,3.657105
1.6120,5.022473,3.723820,1.095106,3.723820
1.6130,5.022773,3.754961,1.095106,3.754961
1.6140,5.023070,3.750351,1.058779,3.750351
1.6150,5.023364,3.724005,1.000000,3.724005
1.6160,5.023654,3.698383,0.941221,3.698383
1.6170,5.023940,3.695562,0.904894,3.695562
1.6180,5.024223,3.729951,0.904894,3.729951
1.6190,5.024500,3.801178,0.941221,3.801178
1.6200,5.024774,3.895519,1.000000,3.895519
1.6210,5.025042,3.990446,1.058779,3.990446
1.6220,5.025306,4.063546,1.095106,4.063546
1.6230,5.025564,4.100849,1.095106,4.100849
1.6240,5.025817,4.102462,1.058779,4.102462
1.6250,5.026064,4.082087,1.000000,4.082087
1.6260,5.026306,4.062280,0.941221,4.062280
1.6270,5.026541,4.065443,0.904894,4.065443
1.6280,5.026770,4.105568,0.904894,4.105568
1.6290,5.026992,4.182549,0.941221,4.182549
1.6300,5.027208,4.282458,1.000000,4.282458
1.6310,5.027418,4.382856,1.058779,4.382856
1.6320,5.027620,4.461242,1.095106,4.461242
1.6330,5.027814,4.503810,1.095106,4.503810
1.6340,5.028002,4.510591,1.058779,4.510591
1.6350,5.028182,4.495316,1.000000,4.495316
1.6360,5.028354,4.480452,0.941221,4.480452
1.6370,5.028519,4.488463,0.904894,4.488463
1.6380,5.028675,4.533235,0.904894,4.533235
1.6390,5.028823,4.614732,0.941221,4.614732
1.6400,5.028963,4.719046,1.000000,4.719046
1.6410,5.029095,4.823863,1.058779,4.823863
1.6420,5.029218,4.906500,1.095106,4.906500
1.6430,5.029332,4.953116,1.095106,4.953116
1.6440,5.029438,4.963825,1.058779,4.963825
1.6450,5.029534,4.952315,1.000000,4.952315
1.6460,5.029622,4.941143,0.941221,4.941143
1.6470,5.029701,4.952785,0.904894,4.952785
1.6480,5.029771,5.001071,0.904894,5.001071
1.6490,5.029831,5.085852,0.941221,5.085852
1.6500,5.029883,5.193324,1.000000,5.193324
1.6510,5.029925,5.301048,1.058779,5.301048
1.6520,5.029957,5.386533,1.095106,5.386533
1.6530,5.029981,5.436014,1.095106,5.436014
1.6540,5.029995,5.449248,1.058779,5.449248
1.6550,5.029999,5.440241,1.000000,5.440241
1.6560,5.029995,5.431465,0.941221,5.431465
1.6570,5.029981,5.445173,0.904894,5.445173
1.6580,5.029957,5.495461,0.904894,5.495461
1.6590,5.029925,5.582130,0.941221,5.582130
1.6600,5.029883,5.691398,1.000000,5.691398
1.6610,5.029831,5.800734,1.058779,5.800734
1.6620,5.029771,5.887667,1.095106,5.887667
1.6630,5.029701,5.938259,1.095106,5.938259
1.6640,5.029622,5.952754,1.058779,5.952754
1.6650,5.029534,5.944778,1.000000,5.944778
1.6660,5.029438,5.936672,0.941221,5.936672
1.6670,5.029332,5.951148,0.904894,5.951148
1.6680,5.029218,6.001973,0.904894,6.001973
1.6690,5.029095,6.089051,0.941221,6.089051
1.6700,5.028963,6.198513,1.000000,6.198513
1.6710,5.028823,6.307958,1.058779,6.307958
1.6720,5.028675,6.394827,1.095106,6.394827
1.6730,5.028519,6.445329,1.095106,6.445329
1.6740,5.028354,6.459379,1.058779,6.459379
1.6750,5.028182,6.450807,1.000000,6.450807
1.6760,5.028002,6.442176,0.941221,6.442176
1.6770,5.027814,6.455855,0.904894,6.455855
1.6780,5.027620,6.505663,0.904894,6.505663
1.6790,5.027417,6.591588,0.941221,6.591588
1.6800,5.027208,6.699876,1.000000,6.699876
1.6810,5.026992,6.807847,1.058779,6.807847
1.6820,5.026770,6.893165,1.095106,6.893165
1.6830,5.026541,6.941909,1.095106,6.941909
1.6840,5.026305,6.954223,1.058779,6.954223
1.6850,5.026064,6.943628,1.000000,6.943628
1.6860,5.025817,6.932861,0.941221,6.932861
1.6870,5.025564,6.944188,0.904894,6.944188
1.6880,5.025306,6.991607,0.904894,6.991607
1.6890,5.025042,7.075070,0.941221,7.075070
1.6900,5.024773,7.180495,1.000000,7.180495
1.6910,5.024500,7.285656,1.058779,7.285656
1.6920,5.024222,7.367941,1.095106,7.367941
1.6930,5.023940,7.413689,1.095106,7.413689
1.6940,5.023654,7.422698,1.058779,7.422698
1.6950,5.023364,7.408764,1.000000,7.408764
1.6960,5.023070,7.394385,0.941221,7.394385
1.6970,5.022773,7.402162,0.904894,7.402162
1.6980,5.022472,7.445740,0.904894,7.445740
1.6990,5.022169,7.525234,0.941221,7.525234
1.7000,5.021863,7.626747,1.000000,7.626747
1.7010,5.021554,7.727726,1.058779,7.727726
1.7020,5.021243,7.805815,1.095106,7.805815
1.7030,5.020930,7.847100,1.095106,7.847100
1.7040,5.020615,7.851424,1.058779,7.851424
1.7050,5.020299,7.832912,1.000000,7.832912
1.7060,5.019981,7.813868,0.941221,7.813868
1.7070,5.019662,7.816793,0.904894,7.816793
1.7080,5.019342,7.855356,0.904894,7.855356
1.7090,5.019021,7.929736,0.941221,7.929736
1.7100,5.018700,8.026037,1.000000,8.026037
1.7110,5.018378,8.121811,1.058779,8.121811
1.7120,5.018057,8.194421,1.095106,8.194421
1.7130,5.017735,8.230168,1.095106,8.230168
1.7140,5.017414,8.229031,1.058779,8.229031
1.7150,5.017093,8.204735,1.000000,8.204735
1.7160,5.016773,8.179950,0.941221,8.179950
1.7170,5.016454,8.176854,0.904894,8.176854
1.7180,5.016136,8.209552,0.904894,8.209552
1.7190,5.015819,8.277818,0.941221,8.277818
1.7200,5.015503,8.368017,1.000000,8.368017
1.7210,5.015189,8.457447,1.058779,8.457447
1.7220,5.014876,8.523796,1.095106,8.523796
1.7230,5.014566,8.553244,1.095106,8.553244
1.7240,5.014257,8.545598,1.058779,8.545598
1.7250,5.013951,8.514745,1.000000,8.514745
1.7260,5.013647,8.483315,0.941221,8.483315
1.7270,5.013346,8.473646,0.904894,8.473646
1.7280,5.013047,8.499508,0.904894,8.499508
1.7290,5.012750,8.561068,0.941221,8.561068
1.7300,5.012457,8.644424,1.000000,8.644424
1.7310,5.012166,8.726981,1.058779,8.726981
1.7320,5.011879,8.786363,1.095106,8.786363
1.7330,5.011595,8.808665,1.095106,8.808665
1.7340,5.011314,8.794020,1.058779,8.794020
1.7350,5.011036,8.756138,1.000000,8.756138
1.7360,5.010762,8.717540,0.941221,8.717540
1.7370,5.010491,8.700627,0.904894,8.700627
1.7380,5.010224,8.719294,0.904894,8.719294
1.7390,5.009961,8.773584,0.941221,8.773584
1.7400,5.009701,8.849642,1.000000,8.849642
1.7410,5.009446,8.924922,1.058779,8.924922
1.7420,5.009194,8.976933,1.095106,8.976933
1.7430,5.008946,8.991933,1.095106,8.991933
1.7440,5.008702,8.969812,1.058779,8.969812
1.7450,5.008462,8.924569,1.000000,8.924569
1.7460,5.008226,8.878519,0.941221,8.878519
1.7470,5.007994,8.854180,0.904894,8.854180
1.7480,5.007766,8.865491,0.904894,8.865491
1.7490,5.007543,8.912375,0.941221,8.912375
1.7500,5.007323,8.980906,1.000000,8.980906
1.7510,5.007108,9.048711,1.058779,9.048711
1.7520,5.006897,9.093279,1.095106,9.093279
1.7530,5.006690,9.100922,1.095106,9.100922
1.7540,5.006487,9.071474,1.058779,9.071474
1.7550,5.006288,9.018750,1.000000,9.018750
1.7560,5.006094,8.965302,0.941221,8.965302
1.7570,5.005904,8.933654,0.904894,8.933654
1.7580,5.005717,8.937515,0.904894,8.937515
1.7590,5.005535,8.977134,0.941221,8.977134
1.7600,5.005358,9.038397,1.000000,9.038397
1.7610,5.005184,9.098865,1.058779,9.098865
1.7620,5.005014,9.136251,1.095106,9.136251
1.7630,5.004849,9.136600,1.095106,9.136600
1.7640,5.004687,9.099949,1.058779,9.099949
1.7650,5.004529,9.040094,1.000000,9.040094
1.7660,5.004376,8.979651,0.941221,8.979651
1.7670,5.004226,8.940911,0.904894,8.940911
1.7680,5.004080,8.937759,0.904894,8.937759
1.7690,5.003938,8.970353,0.941221,8.970353
1.7700,5.003799,9.024704,1.000000,9.024704
1.7710,5.003664,9.078385,1.058779,9.078385
1.7720,5.003533,9.108971,1.095106,9.108971
1.7730,5.003406,9.102615,1.095106,9.102615
1.7740,5.003282,9.059243,1.058779,9.059243
1.7750,5.003162,8.992792,1.000000,8.992792
1.7760,5.003045,8.925737,0.941221,8.925737
1.7770,5.002932,8.880580,0.904894,8.880580
1.7780,5.002822,8.871012,0.904894,8.871012
1.7790,5.002715,8.897256,0.941221,8.897256
1.7800,5.002611,8.945318,1.000000,8.945318
1.7810,5.002511,8.992845,1.058779,8.992845
1.7820,5.002413,9.017315,1.095106,9.017315
1.7830,5.002319,9.004850,1.095106,9.004850
1.7840,5.002228,8.955564,1.058779,8.955564
1.7850,5.002139,8.883298,1.000000,8.883298
1.7860,5.002054,8.810419,0.941221,8.810419
1.7870,5.001971,8.759519,0.904894,8.759519
1.7880,5.001891,8.744455,0.904894,8.744455
1.7890,5.001814,8.765190,0.941221,8.765190
1.7900,5.001739,8.807820,1.000000,8.807820
1.7910,5.001667,8.849950,1.058779,8.849950
1.7920,5.001598,8.869248,1.095106,8.869248
1.7930,5.001530,8.851683,1.095106,8.851683
1.7940,5.001466,8.797397,1.058779,8.797397
1.7950,5.001403,8.720112,1.000000,8.720112
1.7960,5.001343,8.642415,0.941221,8.642415
1.7970,5.001285,8.586783,0.904894,8.586783
1.7980,5.001229,8.567037,0.904894,8.567037
1.7990,5.001175,8.583252,0.941221,8.583252
1.8000,5.001123,8.621443,1.000000,8.621443
1.8010,5.001073,8.659327,1.058779,8.659327
1.8020,5.001025,8.674458,1.095106,8.674458
1.8030,5.000979,8.652784,1.095106,8.652784
1.8040,5.000935,8.594496,1.058779,8.594496
1.8050,5.000892,8.513325,1.000000,8.513325
1.8060,5.000851,8.432023,0.941221,8.432023
1.8070,5.000812,8.372698,0.904894,8.372698
1.8080,5.000774,8.349421,0.904894,8.349421
1.8090,5.000738,8.362187,0.941221,8.362187
1.8100,5.000703,8.397225,1.000000,8.397225
1.8110,5.000669,8.431814,1.058779,8.431814
1.8120,5.000637,8.443899,1.095106,8.443899
1.8130,5.000607,8.419181,1.095106,8.419181
1.8140,5.000578,8.358111,1.058779,8.358111
1.8150,5.000549,8.274297,1.000000,8.274297
1.8160,5.000523,8.190283,0.941221,8.190283
1.8170,5.000497,8.128336,0.904894,8.128336
1.8180,5.000472,8.102860,0.904894,8.102860
1.8190,5.000449,8.113375,0.941221,8.113375
1.8200,5.000426,8.146152,1.000000,8.146152
1.8210,5.000405,8.178915,1.058779,8.178915
1.8220,5.000384,8.188950,1.095106,8.188950
1.8230,5.000365,8.162563,1.095106,8.162563
1.8240,5.000346,8.099728,1.058779,8.099728
1.8250,5.000328,8.014305,1.000000,8.014305
1.8260,5.000311,7.928845,0.941221,7.928845
1.8270,5.000295,7.865806,0.904894,7.865806
1.8280,5.000279,7.838854,0.904894,7.838854
1.8290,5.000265,7.848293,0.941221,7.848293
1.8300,5.000251,7.880135,1.000000,7.880135
1.8310,5.000237,7.911883,1.058779,7.911883
1.8320,5.000224,7.921179,1.095106,7.921179
1.8330,5.000212,7.894152,1.095106,7.894152
1.8340,5.000201,7.830879,1.058779,7.830879
1.8350,5.000190,7.745028,1.000000,7.745028
1.8360,5.000179,7.659213,0.941221,7.659213
1.8370,5.000170,7.595806,0.904894,7.595806
1.8380,5.000160,7.568852,0.904894,7.568852
1.8390,5.000151,7.578309,0.941221,7.578309
1.8400,5.000143,7.610147,1.000000,7.610147
1.8410,5.000135,7.642111,1.058779,7.642111
1.8420,5.000127,7.651786,1.095106,7.651786
1.8430,5.000120,7.625104,1.095106,7.625104
1.8440,5.000113,7.562189,1.058779,7.562189
1.8450,5.000107,7.477066,1.000000,7.477066
1.8460,5.000100,7.391796,0.941221,7.391796
1.8470,5.000095,7.329361,0.904894,7.329361
1.8480,5.000089,7.303238,0.904894,7.303238
1.8490,5.000084,7.313520,0.941221,7.313520
1.8500,5.000079,7.346561,1.000000,7.346561
1.8510,5.000074,7.379614,1.058779,7.379614
1.8520,5.000070,7.390385,1.095106,7.390385
1.8530,5.000066,7.365008,1.095106,7.365008
1.8540,5.000062,7.303569,1.058779,7.303569
1.8550,5.000058,7.219832,1.000000,7.219832
1.8560,5.000054,7.136202,0.941221,7.136202
1.8570,5.000051,7.075375,0.904894,7.075375
1.8580,5.000048,7.050959,0.904894,7.050959
1.8590,5.000045,7.063121,0.941221,7.063121
1.8600,5.000042,7.097909,1.000000,7.097909
1.8610,5.000040,7.132945,1.058779,7.132945
1.8620,5.000037,7.145782,1.095106,7.145782
1.8630,5.000035,7.122409,1.095106,7.122409
1.8640,5.000033,7.063009,1.058779,7.063009
1.8650,5.000031,6.981444,1.000000,6.981444
1.8660,5.000029,6.900152,0.941221,6.900152
1.8670,5.000027,6.841506,0.904894,6.841506
1.8680,5.000025,6.819516,0.904894,6.819516
1.8690,5.000023,6.834032,0.941221,6.834032
1.8700,5.000022,6.871218,1.000000,6.871218
1.8710,5.000020,6.908757,1.058779,6.908757
1.8720,5.000019,6.924219,1.095106,6.924219
1.8730,5.000018,6.903495,1.095106,6.903495
1.8740,5.000017,6.846633,1.058779,6.846633
1.8750,5.000016,6.767836,1.000000,6.767836
1.8760,5.000015,6.689162,0.941221,6.689162
1.8770,5.000014,6.633219,0.904894,6.633219
1.8780,5.000013,6.613991,0.904894,6.613991
1.8790,5.000012,6.631330,0.941221,6.631330
1.8800,5.000011,6.671446,1.000000,6.671446
1.8810,5.000010,6.711886,1.058779,6.711886
1.8820,5.000010,6.730033,1.095106,6.730033
1.8830,5.000009,6.712277,1.095106,6.712277
1.8840,5.000008,6.658455,1.058779,6.658455
1.8850,5.000008,6.582477,1.000000,6.582477
1.8860,5.000007,6.506769,0.941221,6.506769
1.8870,5.000007,6.453897,0.904894,6.453897
1.8880,5.000006,6.437539,0.904894,6.437539
1.8890,5.000006,6.457845,0.941221,6.457845
1.8900,5.000005,6.500974,1.000000,6.500974
1.8910,5.000005,6.544341,1.058779,6.544341
1.8920,5.000005,6.565609,1.095106,6.565609
1.8930,5.000004,6.550713,1.095106,6.550713
1.8940,5.000004,6.499913,1.058779,6.499913
1.8950,5.000004,6.426897,1.000000,6.426897
1.8960,5.000003,6.354163,0.941221,6.354163
1.8970,5.000003,6.304143,0.904894,6.304143
1.8980,5.000003,6.290721,0.904894,6.290721
1.8990,5.000003,6.314093,0.941221,6.314093
1.9000,5.000003,6.360072,1.000000,6.360072
1.9010,5.000002,6.406294,1.058779,6.406294
1.9020,5.000002,6.430435,1.095106,6.430435
1.9030,5.000002,6.418450,1.095106,6.418450
1.9040,5.000002,6.370378,1.058779,6.370378
1.9050,5.000002,6.300174,1.000000,6.300174
1.9060,5.000002,6.230190,0.941221,6.230190
1.9070,5.000001,6.182953,0.904894,6.182953
1.9080,5.000001,6.172300,0.904894,6.172300
1.9090,5.000001,6.198218,0.941221,6.198218
1.9100,5.000001,6.246840,1.000000,6.246840
1.9110,5.000001,6.295655,1.058779,6.295655
1.9120,5.000001,6.322224,1.095106,6.322224
1.9130,5.000001,6.312734,1.095106,6.312734
1.9140,5.000001,6.267159,1.058779,6.267159
1.9150,5.000001,6.199400,1.000000,6.199400
1.9160,5.000001,6.131756,0.941221,6.131756
1.9170,5.000001,6.086825,0.904894,6.086825
1.9180,5.000001,6.078349,0.904894,6.078349
1.9190,5.000001,6.106433,0.941221,6.106433
1.9200,5.000001,6.157194,1.000000,6.157194
1.9210,5.000000,6.208078,1.058779,6.208078
1.9220,5.000000,6.236741,1.095106,6.236741
1.9230,5.000000,6.229290,1.095106,6.229290
1.9240,5.000000,6.185470,1.058779,6.185470
1.9250,5.000000,6.119630,1.000000,6.119630
1.9260,5.000000,6.053794,0.941221,6.053794
1.9270,5.000000,6.010560,0.904894,6.010560
1.9280,5.000000,6.003677,0.904894,6.003677
1.9290,5.000000,6.033410,0.941221,6.033410
1.9300,5.000000,6.085662,1.000000,6.085662
1.9310,5.000000,6.137980,1.058779,6.137980
1.9320,5.000000,6.168069,1.095106,6.168069
1.9330,5.000000,6.161775,1.095106,6.161775
1.9340,5.000000,6.119313,1.058779,6.119313
1.9350,5.000000,6.054542,1.000000,6.054542
1.9360,5.000000,5.989753,0.941221,5.989753
1.9370,5.000000,5.947547,0.904894,5.947547
1.9380,5.000000,5.941708,0.904894,5.941708
1.9390,5.000000,5.972204,0.941221,5.972204
1.9400,5.000000,6.025289,1.000000,6.025289
1.9410,5.000000,6.078292,1.058779,6.078292
1.9420,5.000000,6.108925,1.095106,6.108925
1.9430,5.000000,6.103293,1.095106,6.103293
1.9440,5.000000,6.061384,1.058779,6.061384
1.9450,5.000000,5.996883,1.000000,5.996883
1.9460,5.000000,5.932473,0.941221,5.932473
1.9470,5.000000,5.890378,0.904894,5.890378
1.9480,5.000000,5.884731,0.904894,5.884731
1.9490,5.000000,5.915294,0.941221,5.915294
1.9500,5.000000,5.968344,1.000000,5.968344
1.9510,5.000000,6.021321,1.058779,6.021321
1.9520,5.000000,6.051849,1.095106,6.051849
1.9530,5.000000,6.045940,1.095106,6.045940
1.9540,5.000000,6.003628,1.058779,6.003628
1.9550,5.000000,5.938746,1.000000,5.938746
1.9560,5.000000,5.873808,0.941221,5.873808
1.9570,5.000000,5.831264,0.904894,5.831264
1.9580,5.000000,5.824969,0.904894,5.824969
1.9590,5.000000,5.854848,0.941221,5.854848
1.9600,5.000000,5.907096,1.000000,5.907096
1.9610,5.000000,5.959288,1.058779,5.959288
1.9620,5.000000,5.988789,1.095106,5.988789
1.9630,5.000000,5.981833,1.095106,5.981833
1.9640,5.000000,5.938365,1.058779,5.938365
1.9650,5.000000,5.872379,1.000000,5.872379
1.9660,5.000000,5.806264,0.941221,5.806264
1.9670,5.000000,5.762462,0.904894,5.762462
1.9680,5.000000,5.754693,0.904894,5.754693
1.9690,5.006218,5.789284,0.941221,5.789284
1.9700,5.006571,5.840439,1.000000,5.840439
1.9710,5.006941,5.891303,1.058779,5.891303
1.9720,5.007327,5.919579,1.095106,5.919579
1.9730,5.007730,5.911316,1.095106,5.911316
1.9740,5.008152,5.866499,1.058779,5.866499
1.9750,5.008591,5.799116,1.000000,5.799116
1.9760,5.009049,5.731576,0.941221,5.731576
1.9770,5.009526,5.686173,0.904894,5.686173
1.9780,5.010023,5.676960,0.904894,5.676960
1.9790,5.010540,5.703870,0.941221,5.703870
1.9800,5.011077,5.752982,1.000000,5.752982
1.9810,5.011635,5.801873,1.058779,5.801873
1.9820,5.012215,5.828015,1.095106,5.828015
1.9830,5.012816,5.817681,1.095106,5.817681
1.9840,5.013440,5.770754,1.058779,5.770754
1.9850,5.014086,5.701222,1.000000,5.701222
1.9860,5.014754,5.631348,0.941221,5.631348
1.9870,5.015446,5.583646,0.904894,5.583646
1.9880,5.016162,5.572184,0.904894,5.572184
1.9890,5.016901,5.596628,0.941221,5.596628
1.9900,5.017664,5.643327,1.000000,5.643327
1.9910,5.018452,5.689832,1.058779,5.689832
1.9920,5.019263,5.713596,1.095106,5.713596
1.9930,5.020100,5.700699,1.095106,5.700699
1.9940,5.020961,5.651289,1.058779,5.651289
1.9950,5.021847,5.579142,1.000000,5.579142
1.9960,5.022757,5.506625,0.941221,5.506625
1.9970,5.023692,5.456536,0.904894,5.456536
1.9980,5.024652,5.442251,0.904894,5.442251
1.9990,5.025637,5.464223,0.941221,5.464223
2.0000,5.026646,5.508188,1.000000,5.508188
2.0010,5.027680,5.551988,1.058779,5.551988
2.0020,5.028738,5.573101,1.095106,5.573101
2.0030,5.029819,5.557478,1.095106,5.557478
2.0040,5.030924,5.505401,1.058779,5.505401
2.0050,5.032053,5.430380,1.000000,5.430380
2.0060,5.033203,5.355346,0.941221,5.355346
2.0070,5.034377,5.302364,0.904894,5.302364
2.0080,5.035571,5.285383,0.904894,5.285383
2.0090,5.036787,5.304462,0.941221,5.304462
2.0100,5.038024,5.345918,1.000000,5.345918
2.0110,5.039280,5.386900,1.058779,5.386900
2.0120,5.040555,5.405113,1.095106,5.405113
2.0130,5.041848,5.386840,1.095106,5.386840
2.0140,5.043158,5.331943,1.058779,5.331943
2.0150,5.044485,5.254340,1.000000,5.254340
2.0160,5.045827,5.176370,0.941221,5.176370
2.0170,5.047183,5.120730,0.904894,5.120730
2.0180,5.048553,5.101151,0.904894,5.101151
2.0190,5.049934,5.117599,0.941221,5.117599
2.0200,5.051327,5.156179,1.000000,5.156179
2.0210,5.052728,5.194441,1.058779,5.194441
2.0220,5.054138,5.210117,1.095106,5.210117
2.0230,5.055555,5.189209,1.095106,5.189209
2.0240,5.056977,5.131781,1.058779,5.131781
2.0250,5.058404,5.051620,1.000000,5.051620
2.0260,5.059832,4.971153,0.941221,4.971153
2.0270,5.061262,4.912889,0.904894,4.912889
2.0280,5.062690,4.890801,0.904894,4.890801
2.0290,5.064117,4.904814,0.941221,4.904814
2.0300,5.065540,4.941076,1.000000,4.941076
2.0310,5.066956,4.977066,1.058779,4.977066
2.0320,5.068366,4.990369,1.095106,4.990369
2.0330,5.069767,4.967056,1.095106,4.967056
2.0340,5.071156,4.907450,1.058779,4.907450
2.0350,5.072533,4.825044,1.000000,4.825044
2.0360,5.073896,4.742346,0.941221,4.742346
2.0370,5.075242,4.681993,0.904894,4.681993
2.0380,5.076570,4.657748,0.904894,4.657748
2.0390,5.077879,4.669752,0.941221,4.669752
2.0400,5.079166,4.703985,1.000000,4.703985
2.0410,5.080429,4.738083,1.058779,4.738083
2.0420,5.081667,4.749521,1.095106,4.749521
2.0430,5.082879,4.724502,1.095106,4.724502
2.0440,5.084061,4.663083,1.058779,4.663083
2.0450,5.085213,4.578972,1.000000,4.578972
2.0460,5.086333,4.494667,0.941221,4.494667
2.0470,5.087419,4.432854,0.904894,4.432854
2.0480,5.088469,4.407139,0.904894,4.407139
2.0490,5.089483,4.417724,0.941221,4.417724
2.0500,5.090457,4.450565,1.000000,4.450565
2.0510,5.091392,4.483290,1.058779,4.483290
2.0520,5.092285,4.493541,1.095106,4.493541
2.0530,5.093135,4.467408,1.095106,4.467408
2.0540,5.093940,4.404914,1.058779,4.404914
2.0550,5.094700,4.319782,1.000000,4.319782
2.0560,5.095413,4.234728,0.941221,4.234728
2.0570,5.096078,4.172081,0.904894,4.172081
2.0580,5.096694,4.145679,0.904894,4.145679
2.0590,5.097260,4.155649,0.941221,4.155649
2.0600,5.097774,4.187920,1.000000,4.187920
2.0610,5.098237,4.220249,1.058779,4.220249
2.0620,5.098647,4.230234,1.095106,4.230234
2.0630,5.099004,4.203877,1.095106,4.203877
2.0640,5.099307,4.141073,1.058779,4.141073
2.0650,5.099556,4.056096,1.000000,4.056096
2.0660,5.099750,3.970909,0.941221,3.970909
2.0670,5.099889,3.908464,0.904894,3.908464
2.0680,5.099972,3.882333,0.904894,3.882333
2.0690,5.100000,3.892627,0.941221,3.892627
2.0700,5.099972,3.925408,1.000000,3.925408
2.0710,5.099889,3.958326,1.058779,3.958326
2.0720,5.099751,3.968918,1.095106,3.968918
2.0730,5.099557,3.943409,1.095106,3.943409
2.0740,5.099309,3.881519,1.058779,3.881519
2.0750,5.099006,3.797475,1.000000,3.797475
2.0760,5.098649,3.713619,0.941221,3.713619
2.0770,5.098239,3.652374,0.904894,3.652374
2.0780,5.097777,3.627540,0.904894,3.627540
2.0790,5.097262,3.639303,0.941221,3.639303
2.0800,5.096697,3.673743,1.000000,3.673743
2.0810,5.096082,3.708579,1.058779,3.708579
2.0820,5.095417,3.720927,1.095106,3.720927
2.0830,5.094704,3.697388,1.095106,3.697388
2.0840,5.093945,3.637630,1.058779,3.637630
2.0850,5.093140,3.555948,1.000000,3.555948
2.0860,5.092291,3.474311,0.941221,3.474311
2.0870,5.091398,3.415620,0.904894,3.415620
2.0880,5.090464,3.393513,0.904894,3.393513
2.0890,5.089490,3.408037,0.941221,3.408037
2.0900,5.088477,3.445418,1.000000,3.445418
2.0910,5.087428,3.483027,1.058779,3.483027
2.0920,5.086342,3.498685,1.095106,3.498685
2.0930,5.085223,3.478364,1.095106,3.478364
2.0940,5.084072,3.422087,1.058779,3.422087
2.0950,5.082890,3.343886,1.000000,3.343886
2.0960,5.081680,3.265909,0.941221,3.265909
2.0970,5.080443,3.211026,0.904894,3.211026
2.0980,5.079180,3.192663,0.904894,3.192663
2.0990,5.077894,3.211260,0.941221,3.211260
2.1000,5.076587,3.252770,1.000000,3.252770
2.1010,5.075260,3.294692,1.058779,3.294692
2.1020,5.073915,3.314707,1.095106,3.314707
2.1030,5.072553,3.298994,1.095106,3.298994
2.1040,5.071178,3.247342,1.058779,3.247342
2.1050,5.069790,3.173722,1.000000,3.173722
2.1060,5.068391,3.100805,0.941221,3.100805
2.1070,5.066983,3.050852,0.904894,3.050852
2.1080,5.065568,3.037721,0.904894,3.037721
2.1090,5.064147,3.061484,0.941221,3.061484
2.1100,5.062723,3.108336,1.000000,3.108336
2.1110,5.061296,3.155716,1.058779,3.155716
2.1120,5.059869,3.181224,1.095106,3.181224
2.1130,5.058443,3.171163,1.095106,3.171163
2.1140,5.057020,3.125294,1.058779,3.125294
2.1150,5.055600,3.057600,1.000000,3.057600
2.1160,5.054186,2.990571,0.941221,2.990571
2.1170,5.052779,2.946662,0.904894,2.946662
2.1180,5.051381,2.939803,0.904894,2.939803
2.1190,5.049992,2.969760,0.941221,2.969760
2.1200,5.048614,3.022943,1.000000,3.022943
2.1210,5.047249,3.076847,1.058779,3.076847
2.1220,5.045897,3.108918,1.095106,3.108918
2.1230,5.044559,3.105431,1.095106,3.105431
2.1240,5.043237,3.066330,1.058779,3.066330
2.1250,5.041932,3.005391,1.000000,3.005391
2.1260,5.040644,2.945281,0.941221,2.945281
2.1270,5.039374,2.908245,0.904894,2.908245
2.1280,5.038124,2.908260,0.904894,2.908260
2.1290,5.036894,2.945399,0.941221,2.945399
2.1300,5.035684,3.005624,1.000000,3.005624
2.1310,5.034496,3.066868,1.058779,3.066868
2.1320,5.033331,3.106114,1.095106,3.106114
2.1330,5.032187,3.109777,1.095106,3.109777
2.1340,5.031067,3.078030,1.058779,3.078030
2.1350,5.029970,3.024603,1.000000,3.024603
2.1360,5.028898,2.971840,0.941221,2.971840
2.1370,5.027850,2.942206,0.904894,2.942206
2.1380,5.026826,2.949779,0.904894,2.949779
2.1390,5.025827,2.994494,0.941221,2.994494
2.1400,5.024853,3.062356,1.000000,3.062356
2.1410,5.023905,3.131144,1.058779,3.131144
2.1420,5.022982,3.178085,1.095106,3.178085
2.1430,5.022084,3.189454,1.095106,3.189454
2.1440,5.021211,3.165402,1.058779,3.165402
2.1450,5.020364,3.119505,1.000000,3.119505
2.1460,5.019543,3.074527,0.941221,3.074527
2.1470,5.018746,3.052760,0.904894,3.052760
2.1480,5.017975,3.068076,0.904894,3.068076
2.1490,5.017229,3.120426,0.941221,3.120426
2.1500,5.016508,3.196138,1.000000,3.196138
2.1510,5.015811,3.272467,1.058779,3.272467
2.1520,5.015139,3.327079,1.095106,3.327079
2.1530,5.014490,3.346204,1.095106,3.346204
2.1540,5.013866,3.329894,1.058779,3.329894
2.1550,5.013265,3.291723,1.000000,3.291723
2.1560,5.012687,3.254348,0.941221,3.254348
2.1570,5.012132,3.240237,0.904894,3.240237
2.1580,5.011600,3.263151,0.904894,3.263151
2.1590,5.011089,3.323037,0.941221,3.323037
2.1600,5.010600,3.406221,1.000000,3.406221
2.1610,5.010133,3.490122,1.058779,3.490122
2.1620,5.009686,3.552296,1.095106,3.552296
2.1630,5.009260,3.578953,1.095106,3.578953
2.1640,5.008854,3.569904,1.058779,3.569904
2.1650,5.008468,3.539193,1.000000,3.539193
2.1660,5.008101,3.509086,0.941221,3.509086
2.1670,5.007752,3.502112,0.904894,3.502112
2.1680,5.007422,3.532206,0.904894,3.532206
2.1690,5.007109,3.599330,0.941221,3.599330
2.1700,5.006814,3.689479,1.000000,3.689479
2.1710,5.006536,3.780355,1.058779,3.780355
2.1720,5.006275,3.849559,1.095106,3.849559
2.1730,5.006030,3.883025,1.095106,3.883025
2.1740,5.005800,3.880644,1.058779,3.880644
2.1750,5.005586,3.856709,1.000000,3.856709
2.1760,5.005386,3.833257,0.941221,3.833257
2.1770,5.005201,3.832874,0.904894,3.832874
2.1780,5.005030,3.869369,0.904894,3.869369
2.1790,5.004873,3.942982,0.941221,3.942982
2.1800,5.004729,4.039336,1.000000,4.039336
2.1810,5.004597,4.136503,1.058779,4.136503
2.1820,5.004479,4.211732,1.095106,4.211732
2.1830,5.004372,4.251225,1.095106,4.251225
2.1840,5.004278,4.254925,1.058779,4.254925
2.1850,5.004195,4.236538,1.000000,4.236538
2.1860,5.004123,4.218964,0.941221,4.218964
2.1870,5.004062,4.224132,0.904894,4.224132
2.1880,5.004011,4.266285,0.904894,4.266285
2.1890,5.003971,4.345051,0.941221,4.345051
2.1900,5.003941,4.446882,1.000000,4.446882
2.1910,5.003920,4.549142,1.058779,4.549142
2.1920,5.003909,4.629399,1.095106,4.629399
2.1930,5.003907,4.673796,1.095106,4.673796
2.1940,5.003914,4.682394,1.058779,4.682394
2.1950,5.003930,4.668787,1.000000,4.668787
2.1960,5.003955,4.655673,0.941221,4.655673
2.1970,5.003987,4.665256,0.904894,4.665256
2.1980,5.004028,4.711681,0.904894,4.711681
2.1990,5.004077,4.794778,0.941221,4.794778
2.2000,5.004133,4.900671,1.000000,4.900671
2.2010,5.004197,5.006884,1.058779,5.006884
2.2020,5.004268,5.091005,1.095106,5.091005
2.2030,5.004347,5.139040,1.095106,5.139040
2.2040,5.004432,5.151019,1.058779,5.151019
2.2050,5.004525,5.140928,1.000000,5.140928
2.2060,5.004624,5.131006,0.941221,5.131006
2.2070,5.004730,5.143780,0.904894,5.143780
2.2080,5.004842,5.193127,0.904894,5.193127
2.2090,5.004961,5.279017,0.941221,5.279017
2.2100,5.005086,5.387624,1.000000,5.387624
2.2110,5.005218,5.496416,1.058779,5.496416
2.2120,5.005355,5.582892,1.095106,5.582892
2.2130,5.005499,5.633238,1.095106,5.633238
2.2140,5.005648,5.647426,1.058779,5.647426
2.2150,5.005804,5.639113,1.000000,5.639113
2.2160,5.005965,5.631053,0.941221,5.631053
2.2170,5.006131,5.645643,0.904894,5.645643
2.2180,5.006304,5.696457,0.904894,5.696457
2.2190,5.006481,5.783735,0.941221,5.783735
2.2200,5.006664,5.893577,1.000000,5.893577
2.2210,5.006853,6.003510,1.058779,6.003510
2.2220,5.007047,6.090812,1.095106,6.090812
2.2230,5.007245,6.141948,1.095106,6.141948
2.2240,5.007449,6.156685,1.058779,6.156685
2.2250,5.007658,6.148971,1.000000,6.148971
2.2260,5.007872,6.141183,0.941221,6.141183
2.2270,5.008091,6.155841,0.904894,6.155841
2.2280,5.008315,6.206690,0.904894,6.206690
2.2290,5.008543,6.293910,0.941221,6.293910
2.2300,5.008776,6.403434,1.000000,6.403434
2.2310,5.009014,6.512856,1.058779,6.512856
2.2320,5.009256,6.599577,1.095106,6.599577
2.2330,5.009503,6.649985,1.095106,6.649985
2.2340,5.009753,6.663810,1.058779,6.663810
2.2350,5.010008,6.655078,1.000000,6.655078
2.2360,5.010268,6.646084,0.941221,6.646084
2.2370,5.010531,6.659370,0.904894,6.659370
2.2380,5.010798,6.708753,0.904894,6.708753
2.2390,5.011069,6.794308,0.941221,6.794308
2.2400,5.011343,6.901885,1.000000,6.901885
2.2410,5.011622,7.009414,1.058779,7.009414
2.2420,5.011904,7.094125,1.095106,7.094125
2.2430,5.012189,7.142307,1.095106,7.142307
2.2440,5.012477,7.153789,1.058779,7.153789
2.2450,5.012769,7.142454,1.000000,7.142454
2.2460,5.013063,7.130760,0.941221,7.130760
2.2470,5.013361,7.141289,0.904894,7.141289
2.2480,5.013661,7.187653,0.904894,7.187653
2.2490,5.013963,7.270130,0.941221,7.270130
2.2500,5.014269,7.374640,1.000000,7.374640
2.2510,5.014576,7.478659,1.058779,7.478659
2.2520,5.014885,7.559937,1.095106,7.559937
2.2530,5.015197,7.604312,1.095106,7.604312
2.2540,5.015510,7.612028,1.058779,7.612028
2.2550,5.015825,7.596859,1.000000,7.596859
2.2560,5.016142,7.581182,0.941221,7.581182
2.2570,5.016459,7.587516,0.904894,7.587516
2.2580,5.016778,7.629663,0.904894,7.629663
2.2590,5.017098,7.707644,0.941221,7.707644
2.2600,5.017418,7.807645,1.000000,7.807645
2.2610,5.017739,7.907014,1.058779,7.907014
2.2620,5.018060,7.983453,1.095106,7.983453
2.2630,5.018381,8.023034,1.095106,8.023034
2.2640,5.018703,8.025776,1.058779,8.025776
2.2650,5.019024,8.005472,1.000000,8.005472
2.2660,5.019344,7.984465,0.941221,7.984465
2.2670,5.019664,7.985496,0.904894,7.985496
2.2680,5.019983,8.022267,0.904894,8.022267
2.2690,5.020300,8.094727,0.941221,8.094727
2.2700,5.020616,8.189006,1.000000,8.189006
2.2710,5.020931,8.282718,1.058779,8.282718
2.2720,5.021244,8.353275,1.095106,8.353275
2.2730,5.021555,8.386906,1.095106,8.386906
2.2740,5.021863,8.383596,1.058779,8.383596
2.2750,5.022169,8.357158,1.000000,8.357158
2.2760,5.022473,8.330005,0.941221,8.330005
2.2770,5.022773,8.324712,0.904894,8.324712
2.2780,5.023070,8.355120,0.904894,8.355120
2.2790,5.023364,8.421103,0.941221,8.421103
2.2800,5.023654,8.508898,1.000000,8.508898
2.2810,5.023940,8.595890,1.058779,8.595890
2.2820,5.024223,8.659869,1.095106,8.659869
2.2830,5.024500,8.686750,1.095106,8.686750
2.2840,5.024774,8.676664,1.058779,8.676664
2.2850,5.025042,8.643261,1.000000,8.643261
2.2860,5.025306,8.609275,0.941221,8.609275
2.2870,5.025564,8.596971,0.904894,8.596971
2.2880,5.025817,8.620218,0.904894,8.620218
2.2890,5.026064,8.679154,0.941221,8.679154
2.2900,5.026306,8.759749,1.000000,8.759749
2.2910,5.026541,8.839596,1.058779,8.839596
2.2920,5.026770,8.896212,1.095106,8.896212
2.2930,5.026992,8.915922,1.095106,8.915922
2.2940,5.027208,8.898427,1.058779,8.898427
2.2950,5.027418,8.857712,1.000000,8.857712
2.2960,5.027620,8.816237,0.941221,8.816237
2.2970,5.027814,8.796607,0.904894,8.796607
2.2980,5.028002,8.812388,0.904894,8.812388
2.2990,5.028182,8.863798,0.941221,8.863798
2.3000,5.028354,8.936897,1.000000,8.936897
2.3010,5.028519,9.009273,1.058779,9.009273
2.3020,5.028675,9.058424,1.095106,9.058424
2.3030,5.028823,9.070451,1.095106,9.070451
2.3040,5.028963,9.045493,1.058779,9.045493
2.3050,5.029095,8.997262,1.000000,8.997262
2.3060,5.029218,8.948112,0.941221,8.948112
2.3070,5.029332,8.921002,0.904894,8.921002
2.3080,5.029438,8.929177,0.904894,8.929177
2.3090,5.029534,8.973079,0.941221,8.973079
2.3100,5.029622,9.038676,1.000000,9.038676
2.3110,5.029701,9.103497,1.058779,9.103497
2.3120,5.029771,9.145121,1.095106,9.145121
2.3130,5.029831,9.149636,1.095106,9.149636
2.3140,5.029883,9.117204,1.058779,9.117204
2.3150,5.029925,9.061457,1.000000,9.061457
2.3160,5.029957,9.005086,0.941221,9.005086
2.3170,5.029981,8.970430,0.904894,8.970430
2.3180,5.029995,8.971345,0.904894,8.971345
2.3190,5.029999,9.007884,0.941221,9.007884
2.3200,5.029995,9.066139,1.000000,9.066139
2.3210,5.029981,9.123791,1.058779,9.123791
2.3220,5.029957,9.158227,1.095106,9.158227
2.3230,5.029925,9.155553,1.095106,9.155553
2.3240,5.029883,9.115975,1.058779,9.115975
2.3250,5.029831,9.053147,1.000000,9.053147
2.3260,5.029771,8.989826,0.941221,8.989826
2.3270,5.029701,8.948141,0.904894,8.948141
2.3280,5.029622,8.942221,0.904894,8.942221
2.3290,5.029534,8.971840,0.941221,8.971840
2.3300,5.029438,9.023355,1.000000,9.023355
2.3310,5.029332,9.074110,1.058779,9.074110
2.3320,5.029218,9.101969,1.095106,9.101969
2.3330,5.029095,9.092822,1.095106,9.092822
2.3340,5.028963,9.046631,1.058779,9.046631
2.3350,5.028823,8.977502,1.000000,8.977502
2.3360,5.028675,8.907720,0.941221,8.907720
2.3370,5.028519,8.859746,0.904894,8.859746
2.3380,5.028354,8.847677,0.904894,8.847677
2.3390,5.028182,8.871214,0.941221,8.871214
2.3400,5.028002,8.916694,1.000000,8.916694
2.3410,5.027814,8.961567,1.058779,8.961567
2.3420,5.027620,8.983542,1.095106,8.983542
2.3430,5.027417,8.968508,1.095106,8.968508
2.3440,5.027208,8.916798,1.058779,8.916798
2.3450,5.026992,8.842018,1.000000,8.842018
2.3460,5.026770,8.766794,0.941221,8.766794
2.3470,5.026541,8.713555,0.904894,8.713555
2.3480,5.026305,8.696058,0.904894,8.696058
2.3490,5.026064,8.714431,0.941221,8.714431
2.3500,5.025817,8.754812,1.000000,8.754812
2.3510,5.025564,8.794675,1.058779,8.794675
2.3520,5.025306,8.811761,1.095106,8.811761
2.3530,5.025042,8.792124,1.095106,8.792124
2.3540,5.024773,8.735617,1.058779,8.735617
2.3550,5.024500,8.656306,1.000000,8.656306
2.3560,5.024222,8.576669,0.941221,8.576669
2.3570,5.023940,8.518976,0.904894,8.518976
2.3580,5.023654,8.497327,0.904894,8.497327
2.3590,5.023364,8.511587,0.941221,8.511587
2.3600,5.023070,8.547971,1.000000,8.547971
2.3610,5.022773,8.584008,1.058779,8.584008
2.3620,5.022472,8.597383,1.095106,8.597383
2.3630,5.022169,8.573994,1.095106,8.573994
2.3640,5.021863,8.513990,1.058779,8.513990
2.3650,5.021554,8.431280,1.000000,8.431280
2.3660,5.021243,8.348257,0.941221,8.348257
2.3670,5.020930,8.287484,0.904894,8.287484
2.3680,5.020615,8.262734,0.904894,8.262734
2.3690,5.020299,8.274101,0.941221,8.274101
2.3700,5.019981,8.307686,1.000000,8.307686
2.3710,5.019662,8.341024,1.058779,8.341024
2.3720,5.019342,8.351689,1.095106,8.351689
2.3730,5.019021,8.325851,1.095106,8.325851
2.3740,5.018700,8.263494,1.058779,8.263494
2.3750,5.018378,8.178602,1.000000,8.178602
2.3760,5.018057,8.093483,0.941221,8.093483
2.3770,5.017735,8.030632,0.904894,8.030632
2.3780,5.017414,8.004021,0.904894,8.004021
2.3790,5.017093,8.013659,0.941221,8.013659
2.3800,5.016773,8.045584,1.000000,8.045584
2.3810,5.016454,8.077350,1.058779,8.077350
2.3820,5.016136,8.086711,1.095106,8.086711
2.3830,5.015819,8.059561,1.095106,8.059561
2.3840,5.015503,7.996029,1.058779,7.996029
2.3850,5.015189,7.910053,1.000000,7.910053
2.3860,5.014876,7.823971,0.941221,7.823971
2.3870,5.014566,7.760428,0.904894,7.760428
2.3880,5.014257,7.733082,0.904894,7.733082
2.3890,5.013951,7.741985,0.941221,7.741985
2.3900,5.013647,7.773486,1.000000,7.773486
2.3910,5.013346,7.804965,1.058779,7.804965
2.3920,5.013047,7.813952,1.095106,7.813952
2.3930,5.012750,7.786632,1.095106,7.786632
2.3940,5.012457,7.723137,1.058779,7.723137
2.3950,5.012166,7.637138,1.000000,7.637138
2.3960,5.011879,7.551231,0.941221,7.551231
2.3970,5.011595,7.487871,0.904894,7.487871
2.3980,5.011314,7.460911,0.904894,7.460911
2.3990,5.011036,7.470325,0.941221,7.470325
2.4000,5.010762,7.502317,1.000000,7.502317
2.4010,5.010491,7.534427,1.058779,7.534427
2.4020,5.010224,7.544217,1.095106,7.544217
2.4030,5.009961,7.517747,1.095106,7.517747
2.4040,5.009701,7.455126,1.058779,7.455126
2.4050,5.009446,7.370199,1.000000,7.370199
2.4060,5.009194,7.285468,0.941221,7.285468
2.4070,5.008946,7.223240,0.904894,7.223240
2.4080,5.008702,7.197567,0.904894,7.197567
2.4090,5.008462,7.208413,0.941221,7.208413
2.4100,5.008226,7.241932,1.000000,7.241932
2.4110,5.007994,7.275489,1.058779,7.275489
2.4120,5.007766,7.287022,1.095106,7.287022
2.4130,5.007543,7.262141,1.095106,7.262141
2.4140,5.007323,7.201384,1.058779,7.201384
2.4150,5.007108,7.118236,1.000000,7.118236
2.4160,5.006897,7.035379,0.941221,7.035379
2.4170,5.006690,6.975177,0.904894,6.975177
2.4180,5.006487,6.951593,0.904894,6.951593
2.4190,5.006288,6.964596,0.941221,6.964596
2.4200,5.006094,7.000168,1.000000,7.000168
2.4210,5.005904,7.036108,1.058779,7.036108
2.4220,5.005717,7.049844,1.095106,7.049844
2.4230,5.005535,7.027428,1.095106,7.027428
2.4240,5.005358,6.969007,1.058779,6.969007
2.4250,5.005184,6.888441,1.000000,6.888441
2.4260,5.005014,6.807995,0.941221,6.807995
2.4270,5.004849,6.750306,0.904894,6.750306
2.4280,5.004687,6.729354,0.904894,6.729354
2.4290,5.004529,6.744947,0.941221,6.744947
2.4300,5.004376,6.783267,1.000000,6.783267
2.4310,5.004226,6.821887,1.058779,6.821887
2.4320,5.004080,6.838348,1.095106,6.838348
2.4330,5.003938,6.818812,1.095106,6.818812
2.4340,5.003799,6.763184,1.058779,6.763184
2.4350,5.003664,6.685513,1.000000,6.685513
2.4360,5.003533,6.607959,0.941221,6.607959
2.4370,5.003406,6.553229,0.904894,6.553229
2.4380,5.003282,6.535218,0.904894,6.535218
2.4390,5.003162,6.553706,0.941221,6.553706
2.4400,5.003045,6.595041,1.000000,6.595041
2.4410,5.002932,6.636664,1.058779,6.636664
2.4420,5.002822,6.655992,1.095106,6.655992
2.4430,5.002715,6.639435,1.095106,6.639435
2.4440,5.002611,6.586913,1.058779,6.586913
2.4450,5.002511,6.512079,1.000000,6.512079
2.4460,5.002413,6.437607,0.941221,6.437607
2.4470,5.002319,6.386035,0.904894,6.386035
2.4480,5.002228,6.371003,0.904894,6.371003
2.4490,5.002139,6.392486,0.941221,6.392486
2.4500,5.002054,6.436788,1.000000,6.436788
2.4510,5.001971,6.481360,1.058779,6.481360
2.4520,5.001891,6.503908,1.095106,6.503908
2.4530,5.001814,6.490251,1.095106,6.490251
2.4540,5.001739,6.440647,1.058779,6.440647
2.4550,5.001667,6.368768,1.000000,6.368768
2.4560,5.001598,6.297322,0.941221,6.297322
2.4570,5.001530,6.248480,0.904894,6.248480
2.4580,5.001466,6.236280,0.904894,6.236280
2.4590,5.001403,6.260688,0.941221,6.260688
2.4600,5.001343,6.307949,1.000000,6.307949
2.4610,5.001285,6.355254,1.058779,6.355254
2.4620,5.001229,6.380438,1.095106,6.380438
2.4630,5.001175,6.369538,1.095106,6.369538
2.4640,5.001123,6.322641,1.058779,6.322641
2.4650,5.001073,6.253505,1.000000,6.253505
2.4660,5.001025,6.184624,0.941221,6.184624
2.4670,5.000979,6.138377,0.904894,6.138377
2.4680,5.000935,6.128784,0.904894,6.128784
2.4690,5.000892,6.155664,0.941221,6.155664
2.4700,5.000851,6.205262,1.000000,6.205262
2.4710,5.000812,6.254929,1.058779,6.254929
2.4720,5.000774,6.282471,1.095106,6.282471
2.4730,5.000738,6.273905,1.095106,6.273905
2.4740,5.000703,6.229235,1.058779,6.229235
2.4750,5.000669,6.162262,1.000000,6.162262
2.4760,5.000637,6.095634,0.941221,6.095634
2.4770,5.000607,6.051321,0.904894,6.051321
2.4780,5.000578,6.043720,0.904894,6.043720
2.4790,5.000549,6.072654,0.941221,6.072654
2.4800,5.000523,6.124091,1.000000,6.124091
2.4810,5.000497,6.175638,1.058779,6.175638
2.4820,5.000472,6.205057,1.095106,6.205057
2.4830,5.000449,6.198105,1.095106,6.198105
2.4840,5.000426,6.155048,1.058779,6.155048
2.4850,5.000405,6.089662,1.000000,6.089662
2.4860,5.000384,6.024429,0.941221,6.024429
2.4870,5.000365,5.981593,0.904894,5.981593
2.4880,5.000346,5.975468,0.904894,5.975468
2.4890,5.000328,6.005529,0.941221,6.005529
2.4900,5.000311,6.058073,1.000000,6.058073
2.4910,5.000295,6.110954,1.058779,6.110954
2.4920,5.000279,6.141263,1.095106,6.141263
2.4930,5.000265,6.135470,1.095106,6.135470
2.4940,5.000251,6.093254,1.058779,6.093254
2.4950,5.000237,6.028685,1.000000,6.028685
2.4960,5.000224,5.964197,0.941221,5.964197
2.4970,5.000212,5.922053,0.904894,5.922053
2.4980,5.000201,5.916479,0.904894,5.916479
2.4990,5.000190,5.947139,0.941221,5.947139
2.5000,5.000179,6.000204,1.000000,6.000204
2.5010,5.000170,6.053254,1.058779,6.053254
2.5020,5.000160,6.083914,1.095106,6.083914
2.5030,5.000151,6.078240,1.095106,6.078240
2.5040,5.000143,6.036207,1.058779,6.036207
2.5050,5.000135,5.971700,1.000000,5.971700
2.5060,5.000127,5.907023,0.941221,5.907023
2.5070,5.000120,5.865005,0.904894,5.865005
2.5080,5.000113,5.859128,0.904894,5.859128
2.5090,5.000107,5.889479,0.941221,5.889479
2.5100,5.000100,5.942280,1.000000,5.942280
2.5110,5.000095,5.994881,1.058779,5.994881
2.5120,5.000089,6.025058,1.095106,6.025058
2.5130,5.000084,6.018807,1.095106,6.018807
2.5140,5.000079,5.976062,1.058779,5.976062
2.5150,5.000074,5.910792,1.000000,5.910792
2.5160,5.000070,5.845439,0.941221,5.845439
2.5170,5.000066,5.802361,0.904894,5.802361
2.5180,5.000062,5.795537,0.904894,5.795537
2.5190,5.000058,5.824812,0.941221,5.824812
2.5200,5.000054,5.876547,1.000000,5.876547
2.5210,5.000051,5.927878,1.058779,5.927878
2.5220,5.000048,5.956806,1.095106,5.956806
2.5230,5.000045,5.949279,1.095106,5.949279
2.5240,5.000042,5.905065,1.058779,5.905065
2.5250,5.000040,5.838421,1.000000,5.838421
2.5260,5.000037,5.771507,0.941221,5.771507
2.5270,5.000035,5.726765,0.904894,5.726765
2.5280,5.000033,5.718226,0.904894,5.718226
2.5290,5.000031,5.745803,0.941221,5.745803
2.5300,5.000029,5.795636,1.000000,5.795636
2.5310,5.000027,5.845286,1.058779,5.845286
2.5320,5.000025,5.872212,1.095106,5.872212
2.5330,5.000023,5.862621,1.095106,5.862621
2.5340,5.000022,5.816491,1.058779,5.816491
2.5350,5.000020,5.747688,1.000000,5.747688
2.5360,5.000019,5.678580,0.941221,5.678580
2.5370,5.000018,5.631555,0.904894,5.631555
2.5380,5.000017,5.620862,0.904894,5.620862
2.5390,5.000016,5.645990,0.941221,5.645990
2.5400,5.000015,5.693543,1.000000,5.693543
2.5410,5.000014,5.740616,1.058779,5.740616
2.5420,5.000013,5.765242,1.095106,5.765242
2.5430,5.000012,5.753074,1.095106,5.753074
2.5440,5.000011,5.704297,1.058779,5.704297
2.5450,5.000010,5.632791,1.000000,5.632791
2.5460,5.000010,5.561128,0.941221,5.561128
2.5470,5.000009,5.511546,0.904894,5.511546
2.5480,5.000008,5.498030,0.904894,5.498030
2.5490,5.000008,5.520551,0.941221,5.520551
2.5500,5.000007,5.565238,1.000000,5.565238
2.5510,5.000007,5.609690,1.058779,5.609690
2.5520,5.000006,5.631375,1.095106,5.631375
2.5530,5.000006,5.616306,1.095106,5.616306
2.5540,5.000005,5.564715,1.058779,5.564715
2.5550,5.000005,5.490398,1.000000,5.490398
2.5560,5.000005,5.415763,0.941221,5.415763
2.5570,5.000004,5.363239,0.904894,5.363239
2.5580,5.000004,5.346829,0.904894,5.346829
2.5590,5.000004,5.366320,0.941221,5.366320
2.5600,5.000003,5.407958,1.000000,5.407958
2.5610,5.000003,5.449435,1.058779,5.449435
2.5620,5.000003,5.468104,1.095106,5.468104
2.5630,5.000003,5.450146,1.095106,5.450146
2.5640,5.000003,5.395701,1.058779,5.395701
2.5650,5.000002,5.318193,1.000000,5.318193
2.5660,5.000002,5.240544,0.941221,5.240544
2.5670,5.000002,5.185165,0.904894,5.185165
2.5680,5.000002,5.165689,0.904894,5.165689
2.5690,5.000002,5.182304,0.941221,5.182304
2.5700,5.000002,5.221082,1.000000,5.221082
2.5710,5.000001,5.259626,1.058779,5.259626
2.5720,5.000001,5.275335,1.095106,5.275335
2.5730,5.000001,5.254498,1.095106,5.254498
2.5740,5.000001,5.196977,1.058779,5.196977
2.5750,5.000001,5.116733,1.000000,5.116733
2.5760,5.000001,5.036406,0.941221,5.036406
2.5770,5.000001,4.978095,0.904894,4.978095
2.5780,5.000001,4.955978,0.904894,4.955978
2.5790,5.000001,4.969881,0.941221,4.969881
2.5800,5.000001,5.005904,1.000000,5.005904
2.5810,5.000001,5.041697,1.058779,5.041697
2.5820,5.000001,5.054957,1.095106,5.054957
2.5830,5.000001,5.031522,1.095106,5.031522
2.5840,5.000001,4.971464,1.058779,4.971464
2.5850,5.000000,4.888851,1.000000,4.888851
2.5860,5.000000,4.806029,0.941221,4.806029
2.5870,5.000000,4.745426,0.904894,4.745426
2.5880,5.000000,4.720910,0.904894,4.720910
2.5890,5.000000,4.732450,0.941221,4.732450
2.5900,5.000000,4.766370,1.000000,4.766370
2.5910,5.000000,4.800119,1.058779,4.800119
2.5920,5.000000,4.811111,1.095106,4.811111
2.5930,5.000000,4.785641,1.095106,4.785641
2.5940,5.000000,4.723767,1.058779,4.723767
2.5950,5.000000,4.639193,1.000000,4.639193
2.5960,5.000000,4.554506,0.941221,4.554506
2.5970,5.000000,4.492281,0.904894,4.492281
2.5980,5.000000,4.466097,0.904894,4.466097
2.5990,5.000000,4.476068,0.941221,4.476068
2.6000,5.000000,4.508353,1.000000,4.508353
2.6010,5.000000,4.540783,1.058779,4.540783
2.6020,5.000000,4.550380,1.095106,4.550380
2.6030,5.000000,4.523738,1.095106,4.523738
2.6040,5.000000,4.460783,1.058779,4.460783
2.6050,5.000000,4.375049,1.000000,4.375049
2.6060,5.000000,4.289407,0.941221,4.289407
2.6070,5.000000,4.226099,0.904894,4.226099
2.6080,5.000000,4.199023,0.904894,4.199023
2.6090,5.000000,4.208461,0.941221,4.208461
2.6100,5.000000,4.240162,1.000000,4.240162
2.6110,5.000000,4.271904,1.058779,4.271904
2.6120,5.000000,4.281143,1.095106,4.281143
2.6130,5.000000,4.254158,1.095106,4.254158
2.6140,5.000000,4.190878,1.058779,4.190878
2.6150,5.000000,4.105121,1.000000,4.105121
2.6160,5.000000,4.019505,0.941221,4.019505
2.6170,5.000000,3.956175,0.904894,3.956175
2.6180,5.000000,3.929457,0.904894,3.929457
2.6190,5.000000,3.939020,0.941221,3.939020
2.6200,5.000000,3.971215,1.000000,3.971215
2.6210,5.000000,4.003511,1.058779,4.003511
2.6220,5.000000,4.013463,1.095106,4.013463
2.6230,5.000000,3.987043,1.095106,3.987043
2.6240,5.000000,3.924556,1.058779,3.924556
2.6250,5.000000,3.839746,1.000000,3.839746
2.6260,5.000000,3.755207,0.941221,3.755207
2.6270,5.000000,3.693125,0.904894,3.693125
2.6280,5.000000,3.667624,0.904894,3.667624
2.6290,5.006218,3.684822,0.941221,3.684822
2.6300,5.006571,3.718929,1.000000,3.718929
2.6310,5.006941,3.753153,1.058779,3.753153
2.6320,5.007327,3.765191,1.095106,3.765191
2.6330,5.007730,3.741241,1.095106,3.741241
2.6340,5.008152,3.681081,1.058779,3.681081
2.6350,5.008591,3.598848,1.000000,3.598848
2.6360,5.009049,3.516962,0.941221,3.516962
2.6370,5.009526,3.457758,0.904894,3.457758
2.6380,5.010023,3.435219,0.904894,3.435219
2.6390,5.010540,3.449180,0.941221,3.449180
2.6400,5.011077,3.486140,1.000000,3.486140
2.6410,5.011635,3.523445,1.058779,3.523445
2.6420,5.012215,3.538583,1.095106,3.538583
2.6430,5.012816,3.517763,1.095106,3.517763
2.6440,5.013440,3.461072,1.058779,3.461072
2.6450,5.014086,3.382195,1.000000,3.382195
2.6460,5.014754,3.303896,0.941221,3.303896
2.6470,5.015446,3.248358,0.904894,3.248358
2.6480,5.016162,3.229659,0.904894,3.229659
2.6490,5.016901,3.247677,0.941221,3.247677
2.6500,5.017664,3.288689,1.000000,3.288689
2.6510,5.018452,3.330103,1.058779,3.330103
2.6520,5.019263,3.349595,1.095106,3.349595
2.6530,5.020100,3.333199,1.095106,3.333199
2.6540,5.020961,3.280948,1.058779,3.280948
2.6550,5.021847,3.206843,1.000000,3.206843
2.6560,5.022757,3.133198,0.941221,3.133198
2.6570,5.023692,3.082441,0.904894,3.082441
2.6580,5.024652,3.068774,0.904894,3.068774
2.6590,5.025637,3.091844,0.941221,3.091844
2.6600,5.026646,3.137970,1.000000,3.137970
2.6610,5.027680,3.184642,1.058779,3.184642
2.6620,5.028738,3.209463,1.095106,3.209463
2.6630,5.029819,3.198511,1.095106,3.198511
2.6640,5.030924,3.151879,1.058779,3.151879
2.6650,5.032053,3.083335,1.000000,3.083335
2.6660,5.033203,3.015496,0.941221,3.015496
2.6670,5.034377,2.970732,0.904894,2.970732
2.6680,5.035571,2.962808,0.904894,2.962808
2.6690,5.036787,2.991975,0.941221,2.991975
2.6700,5.038024,3.044113,1.000000,3.044113
2.6710,5.039280,3.096925,1.058779,3.096925
2.6720,5.040555,3.128036,1.095106,3.128036
2.6730,5.041848,3.123450,1.095106,3.123450
2.6740,5.043158,3.083170,1.058779,3.083170
2.6750,5.044485,3.021071,1.000000,3.021071
2.6760,5.045827,2.959767,0.941221,2.959767
2.6770,5.047183,2.921573,0.904894,2.921573
2.6780,5.048553,2.920318,0.904894,2.920318
2.6790,5.049934,2.956180,0.941221,2.956180
2.6800,5.051327,3.015184,1.000000,3.015184
2.6810,5.052728,3.074789,1.058779,3.074789
2.6820,5.054138,3.112754,1.095106,3.112754
2.6830,5.055555,3.115108,1.095106,3.115108
2.6840,5.056977,3.081836,1.058779,3.081836
2.6850,5.058404,3.026696,1.000000,3.026696
2.6860,5.059832,2.972527,0.941221,2.972527
2.6870,5.061262,2.941343,0.904894,2.941343
2.6880,5.062690,2.947287,0.904894,2.947287
2.6890,5.064117,2.990282,0.941221,2.990282
2.6900,5.065540,3.056483,1.000000,3.056483
2.6910,5.066956,3.123399,1.058779,3.123399
2.6920,5.068366,3.168550,1.095106,3.168550
2.6930,5.069767,3.178130,1.095106,3.178130
2.6940,5.071156,3.152052,1.058779,3.152052
2.6950,5.072533,3.104347,1.000000,3.104347
2.6960,5.073896,3.057328,0.941221,3.057328
2.6970,5.075242,3.033620,0.904894,3.033620
2.6980,5.076570,3.046738,0.904894,3.046738
2.6990,5.077879,3.097097,0.941221,3.097097
2.7000,5.079166,3.170608,1.000000,3.170608
2.7010,5.080429,3.244775,1.058779,3.244775
2.7020,5.081667,3.297231,1.095106,3.297231
2.7030,5.082879,3.314045,1.095106,3.314045
2.7040,5.084061,3.295385,1.058779,3.295385
2.7050,5.085213,3.254893,1.000000,3.254893
2.7060,5.086333,3.215173,0.941221,3.215173
2.7070,5.087419,3.198500,0.904894,3.198500
2.7080,5.088469,3.218959,0.904894,3.218959
2.7090,5.089483,3.276480,0.941221,3.276480
2.7100,5.090457,3.357033,1.000000,3.357033
2.7110,5.091392,3.438303,1.058779,3.438303
2.7120,5.092285,3.497857,1.095106,3.497857
2.7130,5.093135,3.521724,1.095106,3.521724
2.7140,5.093940,3.509973,1.058779,3.509973
2.7150,5.094700,3.476467,1.000000,3.476467
2.7160,5.095413,3.443559,0.941221,3.443559
2.7170,5.096078,3.433891,0.904894,3.433891
2.7180,5.096694,3.461020,0.904894,3.461020
2.7190,5.097260,3.525199,0.941221,3.525199
2.7200,5.097774,3.612588,1.000000,3.612588
2.7210,5.098237,3.700469,1.058779,3.700469
2.7220,5.098647,3.766708,1.095106,3.766708
2.7230,5.099004,3.796991,1.095106,3.796991
2.7240,5.099307,3.791709,1.058779,3.791709
2.7250,5.099556,3.764526,1.000000,3.764526
2.7260,5.099750,3.738039,0.941221,3.738039
2.7270,5.099889,3.734508,0.904894,3.734508
2.7280,5.099972,3.767949,0.904894,3.767949
2.7290,5.100000,3.838293,0.941221,3.838293
2.7300,5.099972,3.931650,1.000000,3.931650
2.7310,5.099889,4.025544,1.058779,4.025544
2.7320,5.099751,4.097517,1.095106,4.097517
2.7330,5.099557,4.133666,1.095106,4.133666
2.7340,5.099309,4.134024,1.058779,4.134024
2.7350,5.099006,4.112642,1.000000,4.112642
2.7360,5.098649,4.091538,0.941221,4.091538
2.7370,5.098239,4.093488,0.904894,4.093488
2.7380,5.097777,4.132367,0.904894,4.132367
2.7390,5.097262,4.207984,0.941221,4.207984
2.7400,5.096697,4.306508,1.000000,4.306508
2.7410,5.096082,4.405454,1.058779,4.405454
2.7420,5.095417,4.482464,1.095106,4.482464
2.7430,5.094704,4.523652,1.095106,4.523652
2.7440,5.093945,4.528889,1.058779,4.528889
2.7450,5.093140,4.512053,1.000000,4.512053
2.7460,5.092291,4.495776,0.941221,4.495776
2.7470,5.091398,4.502226,0.904894,4.502226
2.7480,5.090464,4.545476,0.904894,4.545476
2.7490,5.089490,4.625389,0.941221,4.625389
2.7500,5.088477,4.728137,1.000000,4.728137
2.7510,5.087428,4.831204,1.058779,4.831204
2.7520,5.086342,4.912228,1.095106,4.912228
2.7530,5.085223,4.957332,1.095106,4.957332
2.7540,5.084072,4.966357,1.058779,4.966357
2.7550,5.082890,4.953189,1.000000,4.953189
2.7560,5.081680,4.940436,0.941221,4.940436
2.7570,5.080443,4.950395,0.904894,4.950395
2.7580,5.079180,4.996988,0.904894,4.996988
2.7590,5.077894,5.080116,0.941221,5.080116
2.7600,5.076587,5.185940,1.000000,5.185940
2.7610,5.075260,5.292087,1.058779,5.292087
2.7620,5.073915,5.375908,1.095106,5.375908
2.7630,5.072553,5.423719,1.095106,5.423719
2.7640,5.071178,5.435313,1.058779,5.435313
2.7650,5.069790,5.424688,1.000000,5.424688
2.7660,5.068391,5.414252,0.941221,5.414252
2.7670,5.066983,5.426599,0.904894,5.426599
2.7680,5.065568,5.475163,0.904894,5.475163
2.7690,5.064147,5.560392,0.941221,5.560392
2.7700,5.062723,5.668065,1.000000,5.668065
2.7710,5.061296,5.775940,1.058779,5.775940
2.7720,5.059869,5.861445,1.095106,5.861445
2.7730,5.058443,5.910704,1.095106,5.910704
2.7740,5.057020,5.923689,1.058779,5.923689
2.7750,5.055600,5.914307,1.000000,5.914307
2.7760,5.054186,5.904975,0.941221,5.904975
2.7770,5.052779,5.918142,0.904894,5.918142
2.7780,5.051381,5.967666,0.904894,5.967666
2.7790,5.049992,6.053476,0.941221,6.053476
2.7800,5.048614,6.161633,1.000000,6.161633
2.7810,5.047249,6.269897,1.058779,6.269897
2.7820,5.045897,6.355645,1.095106,6.355645
2.7830,5.044559,6.405073,1.095106,6.405073
2.7840,5.043237,6.418105,1.058779,6.418105
2.7850,5.041932,6.408603,1.000000,6.408603
2.7860,5.040644,6.398904,0.941221,6.398904
2.7870,5.039374,6.411622,0.904894,6.411622
2.7880,5.038124,6.460611,0.904894,6.460611
