time_s,ppg_clean_ua,ppg_with_ambient_ua,ambient_ua,photodiode_total_ua
0.0000,2.000000,3.999980,2.000000,3.999980
0.0010,2.000000,4.117569,2.117557,4.117569
0.0020,2.000000,4.190223,2.190211,4.190223
0.0030,2.000000,4.190248,2.190211,4.190248
0.0040,2.000000,4.117556,2.117557,4.117556
0.0050,2.000000,4.000054,2.000000,4.000054
0.0060,2.000000,3.882454,1.882443,3.882454
0.0070,2.000000,3.809790,1.809789,3.809790
0.0080,2.000000,3.809774,1.809789,3.809774
0.0090,2.000000,3.882404,1.882443,3.882404
0.0100,2.000000,4.000000,2.000000,4.000000
0.0110,2.000000,4.117509,2.117557,4.117509
0.0120,2.000000,4.190195,2.190211,4.190195
0.0130,2.000000,4.190166,2.190211,4.190166
0.0140,2.000373,4.117983,2.117557,4.117983
0.0150,2.000394,4.000496,2.000000,4.000496
0.0160,2.000416,3.882832,1.882443,3.882832
0.0170,2.000440,3.810273,1.809789,3.810273
0.0180,2.000464,3.810278,1.809789,3.810278
0.0190,2.000489,3.882921,1.882443,3.882921
0.0200,2.000515,4.000530,2.000000,4.000530
0.0210,2.000543,4.118050,2.117557,4.118050
0.0220,2.000572,4.190787,2.190211,4.190787
0.0230,2.000601,4.190768,2.190211,4.190768
0.0240,2.000632,4.118202,2.117557,4.118202
0.0250,2.000665,4.000677,2.000000,4.000677
0.0260,2.000698,3.883060,1.882443,3.883060
0.0270,2.000733,3.810567,1.809789,3.810567
0.0280,2.000769,3.810497,1.809789,3.810497
0.0290,2.000806,3.883288,1.882443,3.883288
0.0300,2.000845,4.000882,2.000000,4.000882
0.0310,2.000885,4.118428,2.117557,4.118428
0.0320,2.000927,4.191121,2.190211,4.191121
0.0330,2.000970,4.191191,2.190211,4.191191
0.0340,2.001014,4.118563,2.117557,4.118563
0.0350,2.001060,4.001118,2.000000,4.001118
0.0360,2.001107,3.883551,1.882443,3.883551
0.0370,2.001156,3.810939,1.809789,3.810939
0.0380,2.001206,3.810983,1.809789,3.810983
0.0390,2.001258,3.883652,1.882443,3.883652
0.0400,2.001311,4.001280,2.000000,4.001280
0.0410,2.001365,4.118928,2.117557,4.118928
0.0420,2.001422,4.191632,2.190211,4.191632
0.0430,2.001479,4.191701,2.190211,4.191701
0.0440,2.001538,4.119056,2.117557,4.119056
0.0450,2.001599,4.001602,2.000000,4.001602
0.0460,2.001661,3.884056,1.882443,3.884056
0.0470,2.001724,3.811534,1.809789,3.811534
0.0480,2.001789,3.811591,1.809789,3.811591
0.0490,2.001855,3.884237,1.882443,3.884237
0.0500,2.001923,4.001888,2.000000,4.001888
0.0510,2.001992,4.119577,2.117557,4.119577
0.0520,2.002063,4.192274,2.190211,4.192274
0.0530,2.002134,4.192380,2.190211,4.192380
0.0540,2.002207,4.119752,2.117557,4.119752
0.0550,2.002281,4.002342,2.000000,4.002342
0.0560,2.002357,3.884806,1.882443,3.884806
0.0570,2.002433,3.812192,1.809789,3.812192
0.0580,2.002511,3.812340,1.809789,3.812340
0.0590,2.002590,3.885009,1.882443,3.885009
0.0600,2.002669,4.002648,2.000000,4.002648
0.0610,2.002750,4.120397,2.117557,4.120397
0.0620,2.002831,4.193044,2.190211,4.193044
0.0630,2.002913,4.193084,2.190211,4.193084
0.0640,2.002996,4.120595,2.117557,4.120595
0.0650,2.003080,4.003041,2.000000,4.003041
0.0660,2.003164,3.885585,1.882443,3.885585
0.0670,2.003248,3.813052,1.809789,3.813052
0.0680,2.003333,3.813098,1.809789,3.813098
0.0690,2.003419,3.885874,1.882443,3.885874
0.0700,2.003504,4.003502,2.000000,4.003502
0.0710,2.003590,4.121206,2.117557,4.121206
0.0720,2.003676,4.193889,2.190211,4.193889
0.0730,2.003761,4.193928,2.190211,4.193928
0.0740,2.003847,4.121396,2.117557,4.121396
0.0750,2.003932,4.003898,2.000000,4.003898
0.0760,2.004017,3.886416,1.882443,3.886416
0.0770,2.004102,3.813936,1.809789,3.813936
0.0780,2.004186,3.813949,1.809789,3.813949
0.0790,2.004269,3.886744,1.882443,3.886744
0.0800,2.004352,4.004329,2.000000,4.004329
0.0810,2.004434,4.122001,2.117557,4.122001
0.0820,2.004515,4.194780,2.190211,4.194780
0.0830,2.004594,4.194841,2.190211,4.194841
0.0840,2.004673,4.122206,2.117557,4.122206
0.0850,2.004750,4.004776,2.000000,4.004776
0.0860,2.004826,3.887237,1.882443,3.887237
0.0870,2.004900,3.814700,1.809789,3.814700
0.0880,2.004973,3.814771,1.809789,3.814771
0.0890,2.005044,3.887436,1.882443,3.887436
0.0900,2.005113,4.005114,2.000000,4.005114
0.0910,2.005180,4.122737,2.117557,4.122737
0.0920,2.005245,4.195479,2.190211,4.195479
0.0930,2.005308,4.195485,2.190211,4.195485
0.0940,2.005369,4.122975,2.117557,4.122975
0.0950,2.005427,4.005458,2.000000,4.005458
0.0960,2.005484,3.887907,1.882443,3.887907
0.0970,2.005537,3.815361,1.809789,3.815361
0.0980,2.005588,3.815449,1.809789,3.815449
0.0990,2.005636,3.888073,1.882443,3.888073
0.1000,2.005682,4.005710,2.000000,4.005710
0.1010,2.005725,4.123335,2.117557,4.123335
0.1020,2.005765,4.195924,2.190211,4.195924
0.1030,2.005802,4.196031,2.190211,4.196031
0.1040,2.005836,4.123324,2.117557,4.123324
0.1050,2.005866,4.005836,2.000000,4.005836
0.1060,2.005894,3.888345,1.882443,3.888345
0.1070,2.005919,3.815634,1.809789,3.815634
0.1080,2.005940,3.815823,1.809789,3.815823
0.1090,2.005958,3.888395,1.882443,3.888395
0.1100,2.005973,4.005944,2.000000,4.005944
0.1110,2.005985,4.123562,2.117557,4.123562
0.1120,2.005993,4.196192,2.190211,4.196192
0.1130,2.005998,4.196189,2.190211,4.196189
0.1140,2.006000,4.123571,2.117557,4.123571
0.1150,2.005998,4.006044,2.000000,4.006044
0.1160,2.005993,3.888428,1.882443,3.888428
0.1170,2.005985,3.815727,1.809789,3.815727
0.1180,2.005973,3.815833,1.809789,3.815833
0.1190,2.005959,3.888413,1.882443,3.888413
0.1200,2.005940,4.005883,2.000000,4.005883
0.1210,2.005919,4.123484,2.117557,4.123484
0.1220,2.005894,4.196159,2.190211,4.196159
0.1230,2.005867,4.196110,2.190211,4.196110
0.1240,2.005836,4.123384,2.117557,4.123384
0.1250,2.005802,4.005798,2.000000,4.005798
0.1260,2.005765,3.888170,1.882443,3.888170
0.1270,2.005725,3.815469,1.809789,3.815469
0.1280,2.005682,3.815458,1.809789,3.815458
0.1290,2.005637,3.888086,1.882443,3.888086
0.1300,2.005588,4.005602,2.000000,4.005602
0.1310,2.005537,4.123069,2.117557,4.123069
0.1320,2.005484,4.195703,2.190211,4.195703
0.1330,2.005428,4.195649,2.190211,4.195649
0.1340,2.005369,4.122860,2.117557,4.122860
0.1350,2.005309,4.005347,2.000000,4.005347
0.1360,2.005246,3.887675,1.882443,3.887675
0.1370,2.005181,3.814916,1.809789,3.814916
0.1380,2.005113,3.814917,1.809789,3.814917
0.1390,2.005044,3.887526,1.882443,3.887526
0.1400,2.004973,4.004970,2.000000,4.004970
0.1410,2.004901,4.122388,2.117557,4.122388
0.1420,2.004827,4.195090,2.190211,4.195090
0.1430,2.004751,4.194950,2.190211,4.194950
0.1440,2.004674,4.122255,2.117557,4.122255
0.1450,2.004595,4.004557,2.000000,4.004557
0.1460,2.004516,3.886881,1.882443,3.886881
0.1470,2.004435,3.814200,1.809789,3.814200
0.1480,2.004353,3.814085,1.809789,3.814085
0.1490,2.004271,3.886778,1.882443,3.886778
0.1500,2.004187,4.004164,2.000000,4.004164
0.1510,2.004103,4.121665,2.117557,4.121665
0.1520,2.004019,4.194272,2.190211,4.194272
0.1530,2.003934,4.194071,2.190211,4.194071
0.1540,2.003849,4.121415,2.117557,4.121415
0.1550,2.003763,4.003815,2.000000,4.003815
0.1560,2.003678,3.886124,1.882443,3.886124
0.1570,2.003592,3.813307,1.809789,3.813307
0.1580,2.003507,3.813270,1.809789,3.813270
0.1590,2.003421,3.885897,1.882443,3.885897
0.1600,2.003336,4.003346,2.000000,4.003346
0.1610,2.003251,4.120787,2.117557,4.120787
0.1620,2.003167,4.193405,2.190211,4.193405
0.1630,2.003083,4.193280,2.190211,4.193280
0.1640,2.003000,4.120492,2.117557,4.120492
0.1650,2.002917,4.002869,2.000000,4.002869
0.1660,2.002835,3.885302,1.882443,3.885302
0.1670,2.002754,3.812590,1.809789,3.812590
0.1680,2.002674,3.812448,1.809789,3.812448
0.1690,2.002594,3.885016,1.882443,3.885016
0.1700,2.002516,4.002472,2.000000,4.002472
0.1710,2.002439,4.119989,2.117557,4.119989
0.1720,2.002362,4.192586,2.190211,4.192586
0.1730,2.002287,4.192546,2.190211,4.192546
0.1740,2.002214,4.119745,2.117557,4.119745
0.1750,2.002141,4.002100,2.000000,4.002100
0.1760,2.002070,3.884536,1.882443,3.884536
0.1770,2.002000,3.811841,1.809789,3.811841
0.1780,2.001931,3.811713,1.809789,3.811713
0.1790,2.001864,3.884306,1.882443,3.884306
0.1800,2.001798,4.001753,2.000000,4.001753
0.1810,2.001734,4.119275,2.117557,4.119275
0.1820,2.001671,4.191775,2.190211,4.191775
0.1830,2.001610,4.191799,2.190211,4.191799
0.1840,2.001550,4.119125,2.117557,4.119125
0.1850,2.001491,4.001470,2.000000,4.001470
0.1860,2.001434,3.883937,1.882443,3.883937
0.1870,2.001379,3.811114,1.809789,3.811114
0.1880,2.001325,3.811124,1.809789,3.811124
0.1890,2.001273,3.883664,1.882443,3.883664
0.1900,2.001222,4.001187,2.000000,4.001187
0.1910,2.001173,4.118770,2.117557,4.118770
0.1920,2.001125,4.191394,2.190211,4.191394
0.1930,2.001079,4.191311,2.190211,4.191311
0.1940,2.001034,4.118643,2.117557,4.118643
0.1950,2.000990,4.001020,2.000000,4.001020
0.1960,2.000949,3.883417,1.882443,3.883417
0.1970,2.000908,3.810682,1.809789,3.810682
0.1980,2.000869,3.810713,1.809789,3.810713
0.1990,2.000832,3.883267,1.882443,3.883267
0.2000,2.000796,4.000780,2.000000,4.000780
0.2010,2.000761,4.118314,2.117557,4.118314
0.2020,2.000728,4.190996,2.190211,4.190996
0.2030,2.000696,4.190937,2.190211,4.190937
0.2040,2.000665,4.118210,2.117557,4.118210
0.2050,2.000636,4.000638,2.000000,4.000638
0.2060,2.000608,3.883120,1.882443,3.883120
0.2070,2.000581,3.810377,1.809789,3.810377
0.2080,2.000556,3.810336,1.809789,3.810336
0.2090,2.000531,3.882957,1.882443,3.882957
0.2100,2.000508,4.000514,2.000000,4.000514
0.2110,2.000486,4.118068,2.117557,4.118068
0.2120,2.000465,4.190722,2.190211,4.190722
0.2130,2.000445,4.190597,2.190211,4.190597
0.2140,2.000427,4.118001,2.117557,4.118001
0.2150,2.000409,4.000378,2.000000,4.000378
0.2160,2.000392,3.882806,1.882443,3.882806
0.2170,2.000376,3.810140,1.809789,3.810140
0.2180,2.000362,3.810124,1.809789,3.810124
0.2190,2.000348,3.882815,1.882443,3.882815
0.2200,2.000335,4.000364,2.000000,4.000364
0.2210,2.000323,4.117867,2.117557,4.117867
0.2220,2.000312,4.190539,2.190211,4.190539
0.2230,2.000302,4.190553,2.190211,4.190553
0.2240,2.000292,4.117848,2.117557,4.117848
0.2250,2.000284,4.000302,2.000000,4.000302
0.2260,2.000276,3.882733,1.882443,3.882733
0.2270,2.000269,3.810019,1.809789,3.810019
0.2280,2.000262,3.810033,1.809789,3.810033
0.2290,2.000257,3.882689,1.882443,3.882689
0.2300,2.000252,4.000215,2.000000,4.000215
0.2310,2.000247,4.117868,2.117557,4.117868
0.2320,2.000244,4.190420,2.190211,4.190420
0.2330,2.000241,4.190436,2.190211,4.190436
0.2340,2.000238,4.117773,2.117557,4.117773
0.2350,2.000236,4.000204,2.000000,4.000204
0.2360,2.000235,3.882722,1.882443,3.882722
0.2370,2.000235,3.810006,1.809789,3.810006
0.2380,2.000234,3.810071,1.809789,3.810071
0.2390,2.000235,3.882653,1.882443,3.882653
0.2400,2.000236,4.000265,2.000000,4.000265
0.2410,2.000237,4.117798,2.117557,4.117798
0.2420,2.000239,4.190387,2.190211,4.190387
0.2430,2.000242,4.190413,2.190211,4.190413
0.2440,2.000245,4.117805,2.117557,4.117805
0.2450,2.000248,4.000268,2.000000,4.000268
0.2460,2.000252,3.882721,1.882443,3.882721
0.2470,2.000256,3.810105,1.809789,3.810105
0.2480,2.000261,3.810072,1.809789,3.810072
0.2490,2.000266,3.882692,1.882443,3.882692
0.2500,2.000271,4.000341,2.000000,4.000341
0.2510,2.000277,4.117851,2.117557,4.117851
0.2520,2.000284,4.190426,2.190211,4.190426
0.2530,2.000291,4.190547,2.190211,4.190547
0.2540,2.000298,4.117843,2.117557,4.117843
0.2550,2.000305,4.000267,2.000000,4.000267
0.2560,2.000313,3.882690,1.882443,3.882690
0.2570,2.000321,3.810085,1.809789,3.810085
0.2580,2.000330,3.810087,1.809789,3.810087
0.2590,2.000339,3.882821,1.882443,3.882821
0.2600,2.000348,4.000352,2.000000,4.000352
0.2610,2.000358,4.117905,2.117557,4.117905
0.2620,2.000368,4.190615,2.190211,4.190615
0.2630,2.000378,4.190586,2.190211,4.190586
0.2640,2.000389,4.117965,2.117557,4.117965
0.2650,2.000400,4.000401,2.000000,4.000401
0.2660,2.000411,3.882828,1.882443,3.882828
0.2670,2.000423,3.810189,1.809789,3.810189
0.2680,2.000435,3.810202,1.809789,3.810202
0.2690,2.000447,3.882920,1.882443,3.882920
0.2700,2.000460,4.000432,2.000000,4.000432
0.2710,2.000472,4.118082,2.117557,4.118082
0.2720,2.000485,4.190691,2.190211,4.190691
0.2730,2.000499,4.190690,2.190211,4.190690
0.2740,2.000513,4.118024,2.117557,4.118024
0.2750,2.000527,4.000504,2.000000,4.000504
0.2760,2.000541,3.883065,1.882443,3.883065
0.2770,2.000555,3.810259,1.809789,3.810259
0.2780,2.000570,3.810356,1.809789,3.810356
0.2790,2.000585,3.883015,1.882443,3.883015
0.2800,2.000601,4.000629,2.000000,4.000629
0.2810,2.000616,4.118240,2.117557,4.118240
0.2820,2.000632,4.190847,2.190211,4.190847
0.2830,2.000648,4.190918,2.190211,4.190918
0.2840,2.000664,4.118156,2.117557,4.118156
0.2850,2.000681,4.000619,2.000000,4.000619
0.2860,2.000697,3.883109,1.882443,3.883109
0.2870,2.000714,3.810515,1.809789,3.810515
0.2880,2.000731,3.810555,1.809789,3.810555
0.2890,2.000749,3.883185,1.882443,3.883185
0.2900,2.000766,4.000783,2.000000,4.000783
0.2910,2.000784,4.118333,2.117557,4.118333
0.2920,2.000802,4.190993,2.190211,4.190993
0.2930,2.000820,4.191059,2.190211,4.191059
0.2940,2.000838,4.118380,2.117557,4.118380
0.2950,2.000856,4.000832,2.000000,4.000832
0.2960,2.000875,3.883288,1.882443,3.883288
0.2970,2.000893,3.810662,1.809789,3.810662
0.2980,2.000912,3.810639,1.809789,3.810639
0.2990,2.000931,3.883444,1.882443,3.883444
0.3000,2.000950,4.000965,2.000000,4.000965
0.3010,2.000968,4.118606,2.117557,4.118606
0.3020,2.000988,4.191217,2.190211,4.191217
0.3030,2.001007,4.191233,2.190211,4.191233
0.3040,2.001026,4.118567,2.117557,4.118567
0.3050,2.001045,4.001069,2.000000,4.001069
0.3060,2.001064,3.883430,1.882443,3.883430
0.3070,2.001084,3.810879,1.809789,3.810879
0.3080,2.001103,3.810902,1.809789,3.810902
0.3090,2.001122,3.883574,1.882443,3.883574
0.3100,2.001141,4.001153,2.000000,4.001153
0.3110,2.001161,4.118742,2.117557,4.118742
0.3120,2.001180,4.191385,2.190211,4.191385
0.3130,2.001199,4.191425,2.190211,4.191425
0.3140,2.001218,4.118709,2.117557,4.118709
0.3150,2.001237,4.001243,2.000000,4.001243
0.3160,2.001256,3.883671,1.882443,3.883671
0.3170,2.001275,3.811102,1.809789,3.811102
0.3180,2.001293,3.811105,1.809789,3.811105
0.3190,2.001312,3.883804,1.882443,3.883804
0.3200,2.001330,4.001285,2.000000,4.001285
0.3210,2.001348,4.118923,2.117557,4.118923
0.3220,2.001366,4.191602,2.190211,4.191602
0.3230,2.001384,4.191648,2.190211,4.191648
0.3240,2.001402,4.118942,2.117557,4.118942
0.3250,2.001419,4.001434,2.000000,4.001434
0.3260,2.001436,3.883855,1.882443,3.883855
0.3270,2.001453,3.811250,1.809789,3.811250
0.3280,2.001470,3.811219,1.809789,3.811219
0.3290,2.001486,3.883904,1.882443,3.883904
0.3300,2.001503,4.001532,2.000000,4.001532
0.3310,2.001518,4.119102,2.117557,4.119102
0.3320,2.001534,4.191755,2.190211,4.191755
0.3330,2.001549,4.191749,2.190211,4.191749
0.3340,2.001564,4.119056,2.117557,4.119056
0.3350,2.001578,4.001607,2.000000,4.001607
0.3360,2.001592,3.884035,1.882443,3.884035
0.3370,2.001606,3.811435,1.809789,3.811435
0.3380,2.001620,3.811409,1.809789,3.811409
0.3390,2.001633,3.884092,1.882443,3.884092
0.3400,2.001645,4.001656,2.000000,4.001656
0.3410,2.001657,4.119204,2.117557,4.119204
0.3420,2.001669,4.191860,2.190211,4.191860
0.3430,2.001680,4.191902,2.190211,4.191902
0.3440,2.001691,4.119272,2.117557,4.119272
0.3450,2.001701,4.001685,2.000000,4.001685
0.3460,2.001711,3.884170,1.882443,3.884170
0.3470,2.001720,3.811493,1.809789,3.811493
0.3480,2.001729,3.811510,1.809789,3.811510
0.3490,2.001738,3.884215,1.882443,3.884215
0.3500,2.001746,4.001745,2.000000,4.001745
0.3510,2.001753,4.119346,2.117557,4.119346
0.3520,2.001760,4.192071,2.190211,4.192071
0.3530,2.001766,4.191990,2.190211,4.191990
0.3540,2.001772,4.119330,2.117557,4.119330
0.3550,2.001777,4.001782,2.000000,4.001782
0.3560,2.001782,3.884219,1.882443,3.884219
0.3570,2.001786,3.811519,1.809789,3.811519
0.3580,2.001790,3.811567,1.809789,3.811567
0.3590,2.001793,3.884264,1.882443,3.884264
0.3600,2.001795,4.001773,2.000000,4.001773
0.3610,2.001797,4.119361,2.117557,4.119361
0.3620,2.001799,4.191957,2.190211,4.191957
0.3630,2.001800,4.191998,2.190211,4.191998
0.3640,2.001800,4.119389,2.117557,4.119389
0.3650,2.001800,4.001818,2.000000,4.001818
0.3660,2.001799,3.884272,1.882443,3.884272
0.3670,2.001797,3.811635,1.809789,3.811635
0.3680,2.001795,3.811628,1.809789,3.811628
0.3690,2.001793,3.884247,1.882443,3.884247
0.3700,2.001790,4.001715,2.000000,4.001715
0.3710,2.001786,4.119318,2.117557,4.119318
0.3720,2.001782,4.191977,2.190211,4.191977
0.3730,2.001777,4.192003,2.190211,4.192003
0.3740,2.001772,4.119343,2.117557,4.119343
0.3750,2.001766,4.001791,2.000000,4.001791
0.3760,2.001760,3.884228,1.882443,3.884228
0.3770,2.001753,3.811522,1.809789,3.811522
0.3780,2.001746,3.811544,1.809789,3.811544
0.3790,2.001738,3.884190,1.882443,3.884190
0.3800,2.001729,4.001726,2.000000,4.001726
0.3810,2.001720,4.119228,2.117557,4.119228
0.3820,2.001711,4.191937,2.190211,4.191937
0.3830,2.001701,4.191915,2.190211,4.191915
0.3840,2.001691,4.119237,2.117557,4.119237
0.3850,2.001680,4.001681,2.000000,4.001681
0.3860,2.001669,3.884106,1.882443,3.884106
0.3870,2.001657,3.811477,1.809789,3.811477
0.3880,2.001645,3.811397,1.809789,3.811397
0.3890,2.001633,3.884074,1.882443,3.884074
0.3900,2.001620,4.001596,2.000000,4.001596
0.3910,2.001606,4.119185,2.117557,4.119185
0.3920,2.001592,4.191819,2.190211,4.191819
0.3930,2.001578,4.191809,2.190211,4.191809
0.3940,2.001564,4.119080,2.117557,4.119080
0.3950,2.001549,4.001556,2.000000,4.001556
0.3960,2.001534,3.883962,1.882443,3.883962
0.3970,2.001518,3.811330,1.809789,3.811330
0.3980,2.001503,3.811241,1.809789,3.811241
0.3990,2.001486,3.883951,1.882443,3.883951
0.4000,2.001470,4.001501,2.000000,4.001501
0.4010,2.001453,4.118977,2.117557,4.118977
0.4020,2.001436,4.191717,2.190211,4.191717
0.4030,2.001419,4.191586,2.190211,4.191586
0.4040,2.001402,4.118969,2.117557,4.118969
0.4050,2.001384,4.001327,2.000000,4.001327
0.4060,2.001366,3.883751,1.882443,3.883751
0.4070,2.001348,3.811114,1.809789,3.811114
0.4080,2.001330,3.811177,1.809789,3.811177
0.4090,2.001312,3.883744,1.882443,3.883744
0.4100,2.001293,4.001315,2.000000,4.001315
0.4110,2.001275,4.118838,2.117557,4.118838
0.4120,2.001256,4.191405,2.190211,4.191405
0.4130,2.001237,4.191384,2.190211,4.191384
0.4140,2.001218,4.118813,2.117557,4.118813
0.4150,2.001199,4.001222,2.000000,4.001222
0.4160,2.001180,3.883565,1.882443,3.883565
0.4170,2.001161,3.810931,1.809789,3.810931
0.4180,2.001141,3.810967,1.809789,3.810967
0.4190,2.001122,3.883622,1.882443,3.883622
0.4200,2.001103,4.001083,2.000000,4.001083
0.4210,2.001083,4.118666,2.117557,4.118666
0.4220,2.001064,4.191306,2.190211,4.191306
0.4230,2.001045,4.191249,2.190211,4.191249
0.4240,2.001026,4.118568,2.117557,4.118568
0.4250,2.001006,4.001083,2.000000,4.001083
0.4260,2.000987,3.883426,1.882443,3.883426
0.4270,2.000968,3.810803,1.809789,3.810803
0.4280,2.000949,3.810723,1.809789,3.810723
0.4290,2.000930,3.883343,1.882443,3.883343
0.4300,2.000911,4.000935,2.000000,4.000935
0.4310,2.000893,4.118458,2.117557,4.118458
0.4320,2.000874,4.191116,2.190211,4.191116
0.4330,2.000855,4.191079,2.190211,4.191079
0.4340,2.000837,4.118373,2.117557,4.118373
0.4350,2.000819,4.000764,2.000000,4.000764
0.4360,2.000801,3.883273,1.882443,3.883273
0.4370,2.000783,3.810550,1.809789,3.810550
0.4380,2.000765,3.810533,1.809789,3.810533
0.4390,2.000747,3.883197,1.882443,3.883197
0.4400,2.000730,4.000708,2.000000,4.000708
0.4410,2.000713,4.118262,2.117557,4.118262
0.4420,2.000696,4.190925,2.190211,4.190925
0.4430,2.000679,4.190843,2.190211,4.190843
0.4440,2.000662,4.118236,2.117557,4.118236
0.4450,2.000646,4.000639,2.000000,4.000639
0.4460,2.000629,3.883064,1.882443,3.883064
0.4470,2.000613,3.810376,1.809789,3.810376
0.4480,2.000598,3.810348,1.809789,3.810348
0.4490,2.000582,3.882971,1.882443,3.882971
0.4500,2.000567,4.000619,2.000000,4.000619
0.4510,2.000552,4.118161,2.117557,4.118161
0.4520,2.000537,4.190803,2.190211,4.190803
0.4530,2.000522,4.190802,2.190211,4.190802
0.4540,2.000508,4.118054,2.117557,4.118054
0.4550,2.000494,4.000515,2.000000,4.000515
0.4560,2.000480,3.882926,1.882443,3.882926
0.4570,2.000466,3.810196,1.809789,3.810196
0.4580,2.000453,3.810225,1.809789,3.810225
0.4590,2.000439,3.882857,1.882443,3.882857
0.4600,2.000426,4.000438,2.000000,4.000438
0.4610,2.000414,4.117937,2.117557,4.117937
0.4620,2.000401,4.190659,2.190211,4.190659
0.4630,2.000389,4.190560,2.190211,4.190560
0.4640,2.000377,4.117972,2.117557,4.117972
0.4650,2.000366,4.000347,2.000000,4.000347
0.4660,2.000354,3.882733,1.882443,3.882733
0.4670,2.000343,3.810156,1.809789,3.810156
0.4680,2.000332,3.810145,1.809789,3.810145
0.4690,2.000321,3.882774,1.882443,3.882774
0.4700,2.000311,4.000280,2.000000,4.000280
0.4710,2.000301,4.117861,2.117557,4.117861
0.4720,2.000291,4.190523,2.190211,4.190523
0.4730,2.000281,4.190505,2.190211,4.190505
0.4740,2.000272,4.117777,2.117557,4.117777
0.4750,2.000263,4.000228,2.000000,4.000228
0.4760,2.000254,3.882741,1.882443,3.882741
0.4770,2.000245,3.809998,1.809789,3.809998
0.4780,2.000236,3.810018,1.809789,3.810018
0.4790,2.000228,3.882650,1.882443,3.882650
0.4800,2.000220,4.000249,2.000000,4.000249
0.4810,2.000212,4.117751,2.117557,4.117751
0.4820,2.000204,4.190423,2.190211,4.190423
0.4830,2.000197,4.190411,2.190211,4.190411
0.4840,2.000190,4.117764,2.117557,4.117764
0.4850,2.000183,4.000150,2.000000,4.000150
0.4860,2.000176,3.882615,1.882443,3.882615
0.4870,2.000169,3.809910,1.809789,3.809910
0.4880,2.000163,3.809983,1.809789,3.809983
0.4890,2.000157,3.882598,1.882443,3.882598
0.4900,2.000151,4.000133,2.000000,4.000133
0.4910,2.000145,4.117660,2.117557,4.117660
0.4920,2.000139,4.190324,2.190211,4.190324
0.4930,2.000134,4.190354,2.190211,4.190354
0.4940,2.000128,4.117802,2.117557,4.117802
0.4950,2.000123,4.000162,2.000000,4.000162
0.4960,2.000118,3.882609,1.882443,3.882609
0.4970,2.000113,3.809944,1.809789,3.809944
0.4980,2.000109,3.809840,1.809789,3.809840
0.4990,2.000104,3.882544,1.882443,3.882544
0.5000,2.000100,4.000106,2.000000,4.000106
0.5010,2.000096,4.117654,2.117557,4.117654
0.5020,2.000092,4.190342,2.190211,4.190342
0.5030,2.000088,4.190287,2.190211,4.190287
0.5040,2.000084,4.117676,2.117557,4.117676
0.5050,2.000081,4.000072,2.000000,4.000072
0.5060,2.000077,3.882537,1.882443,3.882537
0.5070,2.000074,3.809842,1.809789,3.809842
0.5080,2.000070,3.809789,1.809789,3.809789
0.5090,2.000067,3.882529,1.882443,3.882529
0.5100,2.000064,4.000104,2.000000,4.000104
0.5110,2.000062,4.117587,2.117557,4.117587
0.5120,2.000059,4.190302,2.190211,4.190302
0.5130,2.000056,4.190295,2.190211,4.190295
0.5140,2.000054,4.117568,2.117557,4.117568
0.5150,2.000051,4.000058,2.000000,4.000058
0.5160,2.000049,3.882524,1.882443,3.882524
0.5170,2.000046,3.809777,1.809789,3.809777
0.5180,2.000044,3.809799,1.809789,3.809799
0.5190,2.000042,3.882464,1.882443,3.882464
0.5200,2.000040,4.000037,2.000000,4.000037
0.5210,2.000038,4.117605,2.117557,4.117605
0.5220,2.000036,4.190210,2.190211,4.190210
0.5230,2.000035,4.190221,2.190211,4.190221
0.5240,2.000033,4.117614,2.117557,4.117614
0.5250,2.000031,4.000016,2.000000,4.000016
0.5260,2.000030,3.882473,1.882443,3.882473
0.5270,2.000028,3.809781,1.809789,3.809781
0.5280,2.000027,3.809776,1.809789,3.809776
0.5290,2.000026,3.882510,1.882443,3.882510
0.5300,2.000024,3.999968,2.000000,3.999968
0.5310,2.000023,4.117537,2.117557,4.117537
0.5320,2.000022,4.190247,2.190211,4.190247
0.5330,2.000021,4.190263,2.190211,4.190263
0.5340,2.000020,4.117555,2.117557,4.117555
0.5350,2.000019,4.000033,2.000000,4.000033
0.5360,2.000018,3.882470,1.882443,3.882470
0.5370,2.000017,3.809811,1.809789,3.809811
0.5380,2.000016,3.809787,1.809789,3.809787
0.5390,2.000015,3.882403,1.882443,3.882403
0.5400,2.000014,4.000040,2.000000,4.000040
0.5410,2.000013,4.117633,2.117557,4.117633
0.5420,2.000013,4.190225,2.190211,4.190225
0.5430,2.000012,4.190193,2.190211,4.190193
0.5440,2.000011,4.117596,2.117557,4.117596
0.5450,2.000011,4.000021,2.000000,4.000021
0.5460,2.000010,3.882405,1.882443,3.882405
0.5470,2.000010,3.809780,1.809789,3.809780
0.5480,2.000009,3.809769,1.809789,3.809769
0.5490,2.000009,3.882443,1.882443,3.882443
0.5500,2.000008,3.999977,2.000000,3.999977
0.5510,2.000008,4.117601,2.117557,4.117601
0.5520,2.000007,4.190166,2.190211,4.190166
0.5530,2.000007,4.190201,2.190211,4.190201
0.5540,2.000006,4.117551,2.117557,4.117551
0.5550,2.000006,4.000010,2.000000,4.000010
0.5560,2.000006,3.882455,1.882443,3.882455
0.5570,2.000005,3.809741,1.809789,3.809741
0.5580,2.000005,3.809756,1.809789,3.809756
0.5590,2.000005,3.882437,1.882443,3.882437
0.5600,2.000004,4.000048,2.000000,4.000048
0.5610,2.000004,4.117587,2.117557,4.117587
0.5620,2.000004,4.190182,2.190211,4.190182
0.5630,2.000004,4.190197,2.190211,4.190197
0.5640,2.000003,4.117535,2.117557,4.117535
0.5650,2.000003,4.000034,2.000000,4.000034
0.5660,2.000003,3.882475,1.882443,3.882475
0.5670,2.000003,3.809797,1.809789,3.809797
0.5680,2.000003,3.809775,1.809789,3.809775
0.5690,2.000003,3.882442,1.882443,3.882442
0.5700,2.000002,3.999983,2.000000,3.999983
0.5710,2.000002,4.117561,2.117557,4.117561
0.5720,2.000002,4.190215,2.190211,4.190215
0.5730,2.000002,4.190189,2.190211,4.190189
0.5740,2.000002,4.117598,2.117557,4.117598
0.5750,2.000002,4.000006,2.000000,4.000006
0.5760,2.000002,3.882363,1.882443,3.882363
0.5770,2.000002,3.809732,1.809789,3.809732
0.5780,2.000001,3.809783,1.809789,3.809783
0.5790,2.000001,3.882456,1.882443,3.882456
0.5800,2.000001,3.999945,2.000000,3.999945
0.5810,2.000001,4.117498,2.117557,4.117498
0.5820,2.000001,4.190281,2.190211,4.190281
0.5830,2.000001,4.190259,2.190211,4.190259
0.5840,2.000001,4.117568,2.117557,4.117568
0.5850,2.000001,3.999997,2.000000,3.999997
0.5860,2.000001,3.882486,1.882443,3.882486
0.5870,2.000001,3.809787,1.809789,3.809787
0.5880,2.000001,3.809783,1.809789,3.809783
0.5890,2.000001,3.882465,1.882443,3.882465
0.5900,2.000001,3.999988,2.000000,3.999988
0.5910,2.000001,4.117596,2.117557,4.117596
0.5920,2.000001,4.190203,2.190211,4.190203
0.5930,2.000000,4.190229,2.190211,4.190229
0.5940,2.000000,4.117503,2.117557,4.117503
0.5950,2.000000,4.000040,2.000000,4.000040
0.5960,2.000000,3.882401,1.882443,3.882401
0.5970,2.000000,3.809849,1.809789,3.809849
0.5980,2.000000,3.809756,1.809789,3.809756
0.5990,2.000000,3.882549,1.882443,3.882549
0.6000,2.000000,3.999984,2.000000,3.999984
0.6010,2.000000,4.117562,2.117557,4.117562
0.6020,2.000000,4.190142,2.190211,4.190142
0.6030,2.000000,4.190170,2.190211,4.190170
0.6040,2.000000,4.117585,2.117557,4.117585
0.6050,2.000000,3.999987,2.000000,3.999987
0.6060,2.000000,3.882482,1.882443,3.882482
0.6070,2.000000,3.809743,1.809789,3.809743
0.6080,2.000000,3.809809,1.809789,3.809809
0.6090,2.000000,3.882479,1.882443,3.882479
0.6100,2.000000,3.999988,2.000000,3.999988
0.6110,2.000000,4.117576,2.117557,4.117576
0.6120,2.000000,4.190178,2.190211,4.190178
0.6130,2.000000,4.190175,2.190211,4.190175
0.6140,2.000000,4.117664,2.117557,4.117664
0.6150,2.000000,3.999996,2.000000,3.999996
0.6160,2.000000,3.882405,1.882443,3.882405
0.6170,2.000000,3.809773,1.809789,3.809773
0.6180,2.000000,3.809763,1.809789,3.809763
0.6190,2.000000,3.882421,1.882443,3.882421
0.6200,2.000000,3.999956,2.000000,3.999956
0.6210,2.000000,4.117553,2.117557,4.117553
0.6220,2.000000,4.190232,2.190211,4.190232
0.6230,2.000000,4.190207,2.190211,4.190207
0.6240,2.000000,4.117541,2.117557,4.117541
0.6250,2.000000,4.000030,2.000000,4.000030
0.6260,2.000000,3.882471,1.882443,3.882471
0.6270,2.000000,3.809837,1.809789,3.809837
0.6280,2.000000,3.809803,1.809789,3.809803
0.6290,2.000000,3.882473,1.882443,3.882473
0.6300,2.000000,3.999984,2.000000,3.999984
0.6310,2.000000,4.117516,2.117557,4.117516
0.6320,2.000000,4.190206,2.190211,4.190206
0.6330,2.000000,4.190235,2.190211,4.190235
0.6340,2.000000,4.117536,2.117557,4.117536
0.6350,2.000000,3.999975,2.000000,3.999975
0.6360,2.000000,3.882495,1.882443,3.882495
0.6370,2.000000,3.809792,1.809789,3.809792
0.6380,2.000000,3.809868,1.809789,3.809868
0.6390,2.000000,3.882409,1.882443,3.882409
0.6400,2.000000,3.999978,2.000000,3.999978
0.6410,2.000000,4.117581,2.117557,4.117581
0.6420,2.000000,4.190144,2.190211,4.190144
0.6430,2.000000,4.190264,2.190211,4.190264
0.6440,2.000000,4.117554,2.117557,4.117554
0.6450,2.000000,3.999988,2.000000,3.999988
0.6460,2.000000,3.882415,1.882443,3.882415
0.6470,2.000000,3.809864,1.809789,3.809864
0.6480,2.000000,3.809762,1.809789,3.809762
0.6490,2.000000,3.882384,1.882443,3.882384
0.6500,2.000000,4.000077,2.000000,4.000077
0.6510,2.000000,4.117537,2.117557,4.117537
0.6520,2.000000,4.190201,2.190211,4.190201
0.6530,2.000000,4.190272,2.190211,4.190272
0.6540,2.000000,4.117533,2.117557,4.117533
0.6550,2.000000,3.999945,2.000000,3.999945
0.6560,2.000000,3.882361,1.882443,3.882361
0.6570,2.000000,3.809777,1.809789,3.809777
0.6580,2.000000,3.809841,1.809789,3.809841
0.6590,2.000000,3.882436,1.882443,3.882436
0.6600,2.000000,4.000028,2.000000,4.000028
0.6610,2.000000,4.117555,2.117557,4.117555
0.6620,2.000000,4.190264,2.190211,4.190264
0.6630,2.000000,4.190158,2.190211,4.190158
0.6640,2.000000,4.117566,2.117557,4.117566
0.6650,2.000000,4.000022,2.000000,4.000022
0.6660,2.000000,3.882402,1.882443,3.882402
0.6670,2.000000,3.809798,1.809789,3.809798
0.6680,2.000000,3.809805,1.809789,3.809805
0.6690,2.000000,3.882405,1.882443,3.882405
0.6700,2.000000,3.999956,2.000000,3.999956
0.6710,2.000000,4.117548,2.117557,4.117548
0.6720,2.000000,4.190184,2.190211,4.190184
0.6730,2.000000,4.190205,2.190211,4.190205
0.6740,2.000000,4.117615,2.117557,4.117615
0.6750,2.000000,3.999959,2.000000,3.999959
0.6760,2.000000,3.882362,1.882443,3.882362
0.6770,2.000000,3.809842,1.809789,3.809842
0.6780,2.000000,3.809802,1.809789,3.809802
0.6790,2.000000,3.882422,1.882443,3.882422
0.6800,2.000000,3.999980,2.000000,3.999980
0.6810,2.000000,4.117518,2.117557,4.117518
0.6820,2.000000,4.190140,2.190211,4.190140
0.6830,2.000000,4.190268,2.190211,4.190268
0.6840,2.000000,4.117541,2.117557,4.117541
0.6850,2.000000,3.999999,2.000000,3.999999
0.6860,2.000000,3.882405,1.882443,3.882405
0.6870,2.000000,3.809762,1.809789,3.809762
0.6880,2.000000,3.809784,1.809789,3.809784
0.6890,2.000000,3.882435,1.882443,3.882435
0.6900,2.000000,3.999975,2.000000,3.999975
0.6910,2.000000,4.117580,2.117557,4.117580
0.6920,2.000000,4.190268,2.190211,4.190268
0.6930,2.000000,4.190123,2.190211,4.190123
0.6940,2.000000,4.117569,2.117557,4.117569
0.6950,2.000000,4.000049,2.000000,4.000049
0.6960,2.000000,3.882422,1.882443,3.882422
0.6970,2.000000,3.809790,1.809789,3.809790
0.6980,2.000000,3.809837,1.809789,3.809837
0.6990,2.000000,3.882462,1.882443,3.882462
0.7000,2.000000,4.000010,2.000000,4.000010
0.7010,2.000000,4.117581,2.117557,4.117581
0.7020,2.000000,4.190155,2.190211,4.190155
0.7030,2.000000,4.190165,2.190211,4.190165
0.7040,2.000000,4.117567,2.117557,4.117567
0.7050,2.000000,3.999994,2.000000,3.999994
0.7060,2.000000,3.882404,1.882443,3.882404
0.7070,2.000000,3.809787,1.809789,3.809787
0.7080,2.000000,3.809809,1.809789,3.809809
0.7090,2.000000,3.882509,1.882443,3.882509
0.7100,2.000000,3.999973,2.000000,3.999973
0.7110,2.000000,4.117554,2.117557,4.117554
0.7120,2.000000,4.190198,2.190211,4.190198
0.7130,2.000000,4.190214,2.190211,4.190214
0.7140,2.000000,4.117638,2.117557,4.117638
0.7150,2.000000,4.000064,2.000000,4.000064
0.7160,2.000000,3.882427,1.882443,3.882427
0.7170,2.000000,3.809766,1.809789,3.809766
0.7180,2.000000,3.809776,1.809789,3.809776
0.7190,2.000000,3.882515,1.882443,3.882515
0.7200,2.000000,3.999937,2.000000,3.999937
0.7210,2.000000,4.117572,2.117557,4.117572
0.7220,2.000000,4.190209,2.190211,4.190209
0.7230,2.000000,4.190205,2.190211,4.190205
0.7240,2.000000,4.117584,2.117557,4.117584
0.7250,2.000000,4.000048,2.000000,4.000048
0.7260,2.000000,3.882403,1.882443,3.882403
0.7270,2.000000,3.809761,1.809789,3.809761
0.7280,2.000000,3.809771,1.809789,3.809771
0.7290,2.000000,3.882424,1.882443,3.882424
0.7300,2.000000,4.000031,2.000000,4.000031
0.7310,2.000000,4.117568,2.117557,4.117568
0.7320,2.000000,4.190190,2.190211,4.190190
0.7330,2.000000,4.190229,2.190211,4.190229
0.7340,2.000000,4.117555,2.117557,4.117555
0.7350,2.000000,4.000020,2.000000,4.000020
0.7360,2.000000,3.882426,1.882443,3.882426
0.7370,2.000000,3.809800,1.809789,3.809800
0.7380,2.000000,3.809818,1.809789,3.809818
0.7390,2.000000,3.882475,1.882443,3.882475
0.7400,2.000000,4.000032,2.000000,4.000032
0.7410,2.000000,4.117565,2.117557,4.117565
0.7420,2.000000,4.190227,2.190211,4.190227
0.7430,2.000000,4.190153,2.190211,4.190153
0.7440,2.000000,4.117515,2.117557,4.117515
0.7450,2.000000,4.000018,2.000000,4.000018
0.7460,2.000000,3.882491,1.882443,3.882491
0.7470,2.000000,3.809821,1.809789,3.809821
0.7480,2.000000,3.809814,1.809789,3.809814
0.7490,2.000000,3.882421,1.882443,3.882421
0.7500,2.000000,4.000013,2.000000,4.000013
0.7510,2.000000,4.117540,2.117557,4.117540
0.7520,2.000000,4.190236,2.190211,4.190236
0.7530,2.000000,4.190221,2.190211,4.190221
0.7540,2.000000,4.117633,2.117557,4.117633
0.7550,2.000000,4.000061,2.000000,4.000061
0.7560,2.000000,3.882536,1.882443,3.882536
0.7570,2.000000,3.809829,1.809789,3.809829
0.7580,2.000000,3.809773,1.809789,3.809773
0.7590,2.000000,3.882416,1.882443,3.882416
0.7600,2.000000,4.000069,2.000000,4.000069
0.7610,2.000000,4.117532,2.117557,4.117532
0.7620,2.000000,4.190219,2.190211,4.190219
0.7630,2.000000,4.190244,2.190211,4.190244
0.7640,2.000000,4.117581,2.117557,4.117581
0.7650,2.000000,3.999967,2.000000,3.999967
0.7660,2.000000,3.882499,1.882443,3.882499
0.7670,2.000000,3.809755,1.809789,3.809755
0.7680,2.000000,3.809810,1.809789,3.809810
0.7690,2.000000,3.882405,1.882443,3.882405
0.7700,2.000000,4.000025,2.000000,4.000025
0.7710,2.000000,4.117481,2.117557,4.117481
0.7720,2.000000,4.190276,2.190211,4.190276
0.7730,2.000000,4.190234,2.190211,4.190234
0.7740,2.000000,4.117555,2.117557,4.117555
0.7750,2.000000,3.999974,2.000000,3.999974
0.7760,2.000000,3.882473,1.882443,3.882473
0.7770,2.000000,3.809765,1.809789,3.809765
0.7780,2.000000,3.809770,1.809789,3.809770
0.7790,2.000000,3.882521,1.882443,3.882521
0.7800,2.000000,3.999926,2.000000,3.999926
0.7810,2.000000,4.117572,2.117557,4.117572
0.7820,2.000000,4.190209,2.190211,4.190209
0.7830,2.000000,4.190227,2.190211,4.190227
0.7840,2.000000,4.117547,2.117557,4.117547
0.7850,2.000000,3.999963,2.000000,3.999963
0.7860,2.000000,3.882461,1.882443,3.882461
0.7870,2.000000,3.809775,1.809789,3.809775
0.7880,2.000000,3.809798,1.809789,3.809798
0.7890,2.000000,3.882435,1.882443,3.882435
0.7900,2.000000,3.999968,2.000000,3.999968
0.7910,2.000000,4.117527,2.117557,4.117527
0.7920,2.000000,4.190202,2.190211,4.190202
0.7930,2.000000,4.190154,2.190211,4.190154
0.7940,2.000000,4.117560,2.117557,4.117560
0.7950,2.000000,3.999982,2.000000,3.999982
0.7960,2.000000,3.882384,1.882443,3.882384
0.7970,2.000000,3.809821,1.809789,3.809821
0.7980,2.000000,3.809805,1.809789,3.809805
0.7990,2.000000,3.882382,1.882443,3.882382
0.8000,2.000000,4.000030,2.000000,4.000030
0.8010,2.000373,4.117849,2.117557,4.117849
0.8020,2.000394,4.190572,2.190211,4.190572
0.8030,2.000416,4.190679,2.190211,4.190679
0.8040,2.000440,4.118024,2.117557,4.118024
0.8050,2.000464,4.000400,2.000000,4.000400
0.8060,2.000489,3.882920,1.882443,3.882920
0.8070,2.000515,3.810293,1.809789,3.810293
0.8080,2.000543,3.810356,1.809789,3.810356
0.8090,2.000572,3.883067,1.882443,3.883067
0.8100,2.000601,4.000599,2.000000,4.000599
0.8110,2.000632,4.118174,2.117557,4.118174
0.8120,2.000665,4.190903,2.190211,4.190903
0.8130,2.000698,4.190890,2.190211,4.190890
0.8140,2.000733,4.118267,2.117557,4.118267
0.8150,2.000769,4.000742,2.000000,4.000742
0.8160,2.000806,3.883245,1.882443,3.883245
0.8170,2.000845,3.810609,1.809789,3.810609
0.8180,2.000885,3.810659,1.809789,3.810659
0.8190,2.000927,3.883407,1.882443,3.883407
0.8200,2.000970,4.000934,2.000000,4.000934
0.8210,2.001014,4.118586,2.117557,4.118586
0.8220,2.001060,4.191217,2.190211,4.191217
0.8230,2.001107,4.191301,2.190211,4.191301
0.8240,2.001156,4.118756,2.117557,4.118756
0.8250,2.001206,4.001215,2.000000,4.001215
0.8260,2.001258,3.883747,1.882443,3.883747
0.8270,2.001311,3.811079,1.809789,3.811079
0.8280,2.001365,3.811130,1.809789,3.811130
0.8290,2.001422,3.883834,1.882443,3.883834
0.8300,2.001479,4.001473,2.000000,4.001473
0.8310,2.001538,4.119075,2.117557,4.119075
0.8320,2.001599,4.191818,2.190211,4.191818
0.8330,2.001661,4.191866,2.190211,4.191866
0.8340,2.001724,4.119278,2.117557,4.119278
0.8350,2.001789,4.001842,2.000000,4.001842
0.8360,2.001855,3.884288,1.882443,3.884288
0.8370,2.001923,3.811677,1.809789,3.811677
0.8380,2.001992,3.811711,1.809789,3.811711
0.8390,2.002063,3.884474,1.882443,3.884474
0.8400,2.002134,4.002116,2.000000,4.002116
0.8410,2.002207,4.119829,2.117557,4.119829
0.8420,2.002281,4.192456,2.190211,4.192456
0.8430,2.002357,4.192572,2.190211,4.192572
0.8440,2.002433,4.119971,2.117557,4.119971
0.8450,2.002511,4.002508,2.000000,4.002508
0.8460,2.002590,3.885049,1.882443,3.885049
0.8470,2.002669,3.812488,1.809789,3.812488
0.8480,2.002750,3.812509,1.809789,3.812509
0.8490,2.002831,3.885302,1.882443,3.885302
0.8500,2.002913,4.002889,2.000000,4.002889
0.8510,2.002996,4.120501,2.117557,4.120501
0.8520,2.003080,4.193382,2.190211,4.193382
0.8530,2.003164,4.193321,2.190211,4.193321
0.8540,2.003248,4.120836,2.117557,4.120836
0.8550,2.003333,4.003302,2.000000,4.003302
0.8560,2.003419,3.885847,1.882443,3.885847
0.8570,2.003504,3.813322,1.809789,3.813322
0.8580,2.003590,3.813319,1.809789,3.813319
0.8590,2.003676,3.886080,1.882443,3.886080
0.8600,2.003761,4.003767,2.000000,4.003767
0.8610,2.003847,4.121446,2.117557,4.121446
0.8620,2.003932,4.194132,2.190211,4.194132
0.8630,2.004017,4.194240,2.190211,4.194240
0.8640,2.004102,4.121655,2.117557,4.121655
0.8650,2.004186,4.004131,2.000000,4.004131
0.8660,2.004269,3.886702,1.882443,3.886702
0.8670,2.004352,3.814106,1.809789,3.814106
0.8680,2.004434,3.814222,1.809789,3.814222
0.8690,2.004515,3.886948,1.882443,3.886948
0.8700,2.004594,4.004593,2.000000,4.004593
0.8710,2.004673,4.122233,2.117557,4.122233
0.8720,2.004750,4.194923,2.190211,4.194923
0.8730,2.004826,4.195034,2.190211,4.195034
0.8740,2.004900,4.122421,2.117557,4.122421
0.8750,2.004973,4.004938,2.000000,4.004938
0.8760,2.005044,3.887547,1.882443,3.887547
0.8770,2.005113,3.814888,1.809789,3.814888
0.8780,2.005180,3.814984,1.809789,3.814984
0.8790,2.005245,3.887695,1.882443,3.887695
0.8800,2.005308,4.005320,2.000000,4.005320
0.8810,2.005369,4.122880,2.117557,4.122880
0.8820,2.005427,4.195683,2.190211,4.195683
0.8830,2.005484,4.195653,2.190211,4.195653
0.8840,2.005537,4.123039,2.117557,4.123039
0.8850,2.005588,4.005532,2.000000,4.005532
0.8860,2.005636,3.888054,1.882443,3.888054
0.8870,2.005682,3.815500,1.809789,3.815500
0.8880,2.005725,3.815567,1.809789,3.815567
0.8890,2.005765,3.888251,1.882443,3.888251
0.8900,2.005802,4.005796,2.000000,4.005796
0.8910,2.005836,4.123396,2.117557,4.123396
0.8920,2.005866,4.196096,2.190211,4.196096
0.8930,2.005894,4.196054,2.190211,4.196054
0.8940,2.005919,4.123457,2.117557,4.123457
0.8950,2.005940,4.005888,2.000000,4.005888
0.8960,2.005958,3.888455,1.882443,3.888455
0.8970,2.005973,3.815710,1.809789,3.815710
0.8980,2.005985,3.815795,1.809789,3.815795
0.8990,2.005993,3.888430,1.882443,3.888430
0.9000,2.005998,4.005999,2.000000,4.005999
0.9010,2.006000,4.123570,2.117557,4.123570
0.9020,2.005998,4.196210,2.190211,4.196210
0.9030,2.005993,4.196233,2.190211,4.196233
0.9040,2.005985,4.123560,2.117557,4.123560
0.9050,2.005973,4.005971,2.000000,4.005971
0.9060,2.005959,3.888420,1.882443,3.888420
0.9070,2.005940,3.815715,1.809789,3.815715
0.9080,2.005919,3.815704,1.809789,3.815704
0.9090,2.005894,3.888386,1.882443,3.888386
0.9100,2.005867,4.005860,2.000000,4.005860
0.9110,2.005836,4.123361,2.117557,4.123361
0.9120,2.005802,4.196104,2.190211,4.196104
0.9130,2.005765,4.195964,2.190211,4.195964
0.9140,2.005725,4.123238,2.117557,4.123238
0.9150,2.005682,4.005645,2.000000,4.005645
0.9160,2.005637,3.888091,1.882443,3.888091
0.9170,2.005588,3.815385,1.809789,3.815385
0.9180,2.005537,3.815289,1.809789,3.815289
0.9190,2.005484,3.887932,1.882443,3.887932
0.9200,2.005428,4.005436,2.000000,4.005436
0.9210,2.005369,4.122881,2.117557,4.122881
0.9220,2.005309,4.195537,2.190211,4.195537
0.9230,2.005246,4.195435,2.190211,4.195435
0.9240,2.005181,4.122758,2.117557,4.122758
0.9250,2.005113,4.005111,2.000000,4.005111
0.9260,2.005044,3.887499,1.882443,3.887499
0.9270,2.004973,3.814846,1.809789,3.814846
0.9280,2.004901,3.814709,1.809789,3.814709
0.9290,2.004827,3.887244,1.882443,3.887244
0.9300,2.004751,4.004733,2.000000,4.004733
0.9310,2.004674,4.122169,2.117557,4.122169
0.9320,2.004595,4.194851,2.190211,4.194851
0.9330,2.004516,4.194730,2.190211,4.194730
0.9340,2.004435,4.121929,2.117557,4.121929
0.9350,2.004353,4.004430,2.000000,4.004430
0.9360,2.004271,3.886686,1.882443,3.886686
0.9370,2.004187,3.813956,1.809789,3.813956
0.9380,2.004103,3.813932,1.809789,3.813932
0.9390,2.004019,3.886456,1.882443,3.886456
0.9400,2.003934,4.003973,2.000000,4.003973
0.9410,2.003849,4.121399,2.117557,4.121399
0.9420,2.003763,4.194013,2.190211,4.194013
0.9430,2.003678,4.193852,2.190211,4.193852
0.9440,2.003592,4.121131,2.117557,4.121131
0.9450,2.003507,4.003516,2.000000,4.003516
0.9460,2.003421,3.885854,1.882443,3.885854
0.9470,2.003336,3.813154,1.809789,3.813154
0.9480,2.003251,3.813035,1.809789,3.813035
0.9490,2.003167,3.885556,1.882443,3.885556
0.9500,2.003083,4.003057,2.000000,4.003057
0.9510,2.003000,4.120577,2.117557,4.120577
0.9520,2.002917,4.193157,2.190211,4.193157
0.9530,2.002835,4.193062,2.190211,4.193062
0.9540,2.002754,4.120284,2.117557,4.120284
0.9550,2.002674,4.002661,2.000000,4.002661
0.9560,2.002594,3.884998,1.882443,3.884998
0.9570,2.002516,3.812242,1.809789,3.812242
0.9580,2.002439,3.812167,1.809789,3.812167
0.9590,2.002362,3.884759,1.882443,3.884759
0.9600,2.002287,4.002289,2.000000,4.002289
0.9610,2.002214,4.119744,2.117557,4.119744
0.9620,2.002141,4.192318,2.190211,4.192318
0.9630,2.002070,4.192256,2.190211,4.192256
0.9640,2.002000,4.119533,2.117557,4.119533
0.9650,2.001931,4.001950,2.000000,4.001950
0.9660,2.001864,3.884320,1.882443,3.884320
0.9670,2.001798,3.811599,1.809789,3.811599
0.9680,2.001734,3.811479,1.809789,3.811479
0.9690,2.001671,3.884118,1.882443,3.884118
0.9700,2.001610,4.001609,2.000000,4.001609
0.9710,2.001550,4.119148,2.117557,4.119148
0.9720,2.001491,4.191688,2.190211,4.191688
0.9730,2.001434,4.191609,2.190211,4.191609
0.9740,2.001379,4.118968,2.117557,4.118968
0.9750,2.001325,4.001375,2.000000,4.001375
0.9760,2.001273,3.883737,1.882443,3.883737
0.9770,2.001222,3.810992,1.809789,3.810992
0.9780,2.001173,3.810910,1.809789,3.810910
0.9790,2.001125,3.883578,1.882443,3.883578
0.9800,2.001079,4.001027,2.000000,4.001027
0.9810,2.001034,4.118572,2.117557,4.118572
0.9820,2.000990,4.191150,2.190211,4.191150
0.9830,2.000949,4.191186,2.190211,4.191186
0.9840,2.000908,4.118374,2.117557,4.118374
0.9850,2.000869,4.000913,2.000000,4.000913
0.9860,2.000832,3.883251,1.882443,3.883251
0.9870,2.000796,3.810546,1.809789,3.810546
0.9880,2.000761,3.810549,1.809789,3.810549
0.9890,2.000728,3.883159,1.882443,3.883159
0.9900,2.000696,4.000706,2.000000,4.000706
0.9910,2.000665,4.118193,2.117557,4.118193
0.9920,2.000636,4.190874,2.190211,4.190874
0.9930,2.000608,4.190857,2.190211,4.190857
0.9940,2.000581,4.118117,2.117557,4.118117
0.9950,2.000556,4.000533,2.000000,4.000533
0.9960,2.000531,3.882994,1.882443,3.882994
0.9970,2.000508,3.810326,1.809789,3.810326
0.9980,2.000486,3.810288,1.809789,3.810288
0.9990,2.000465,3.882876,1.882443,3.882876
1.0000,2.000445,4.000485,2.000000,4.000485
1.0010,2.000427,4.118013,2.117557,4.118013
1.0020,2.000409,4.190652,2.190211,4.190652
1.0030,2.000392,4.190549,2.190211,4.190549
1.0040,2.000376,4.117915,2.117557,4.117915
1.0050,2.000362,4.000332,2.000000,4.000332
1.0060,2.000348,3.882849,1.882443,3.882849
1.0070,2.000335,3.810030,1.809789,3.810030
1.0080,2.000323,3.810163,1.809789,3.810163
1.0090,2.000312,3.882773,1.882443,3.882773
1.0100,2.000302,4.000257,2.000000,4.000257
1.0110,2.000292,4.117872,2.117557,4.117872
1.0120,2.000284,4.190484,2.190211,4.190484
1.0130,2.000276,4.190527,2.190211,4.190527
1.0140,2.000269,4.117776,2.117557,4.117776
1.0150,2.000262,4.000285,2.000000,4.000285
1.0160,2.000257,3.882668,1.882443,3.882668
1.0170,2.000252,3.810078,1.809789,3.810078
1.0180,2.000247,3.810081,1.809789,3.810081
1.0190,2.000244,3.882699,1.882443,3.882699
1.0200,2.000241,4.000288,2.000000,4.000288
1.0210,2.000238,4.117762,2.117557,4.117762
1.0220,2.000236,4.190429,2.190211,4.190429
1.0230,2.000235,4.190489,2.190211,4.190489
1.0240,2.000235,4.117796,2.117557,4.117796
1.0250,2.000234,4.000222,2.000000,4.000222
1.0260,2.000235,3.882683,1.882443,3.882683
1.0270,2.000236,3.810007,1.809789,3.810007
1.0280,2.000237,3.810028,1.809789,3.810028
1.0290,2.000239,3.882743,1.882443,3.882743
1.0300,2.000242,4.000220,2.000000,4.000220
1.0310,2.000245,4.117858,2.117557,4.117858
1.0320,2.000248,4.190426,2.190211,4.190426
1.0330,2.000252,4.190409,2.190211,4.190409
1.0340,2.000256,4.117787,2.117557,4.117787
1.0350,2.000261,4.000237,2.000000,4.000237
1.0360,2.000266,3.882741,1.882443,3.882741
1.0370,2.000271,3.810101,1.809789,3.810101
1.0380,2.000277,3.810034,1.809789,3.810034
1.0390,2.000284,3.882696,1.882443,3.882696
1.0400,2.000291,4.000235,2.000000,4.000235
1.0410,2.000298,4.117783,2.117557,4.117783
1.0420,2.000305,4.190454,2.190211,4.190454
1.0430,2.000313,4.190531,2.190211,4.190531
1.0440,2.000321,4.117863,2.117557,4.117863
1.0450,2.000330,4.000300,2.000000,4.000300
1.0460,2.000339,3.882781,1.882443,3.882781
1.0470,2.000348,3.810174,1.809789,3.810174
1.0480,2.000358,3.810206,1.809789,3.810206
1.0490,2.000368,3.882806,1.882443,3.882806
1.0500,2.000378,4.000356,2.000000,4.000356
1.0510,2.000389,4.118001,2.117557,4.118001
1.0520,2.000400,4.190647,2.190211,4.190647
1.0530,2.000411,4.190631,2.190211,4.190631
1.0540,2.000423,4.118022,2.117557,4.118022
1.0550,2.000435,4.000362,2.000000,4.000362
1.0560,2.000447,3.882931,1.882443,3.882931
1.0570,2.000460,3.810251,1.809789,3.810251
1.0580,2.000472,3.810241,1.809789,3.810241
1.0590,2.000485,3.882870,1.882443,3.882870
1.0600,2.000499,4.000485,2.000000,4.000485
1.0610,2.000513,4.118063,2.117557,4.118063
1.0620,2.000527,4.190727,2.190211,4.190727
1.0630,2.000541,4.190776,2.190211,4.190776
1.0640,2.000555,4.118073,2.117557,4.118073
1.0650,2.000570,4.000544,2.000000,4.000544
1.0660,2.000585,3.883002,1.882443,3.883002
1.0670,2.000601,3.810369,1.809789,3.810369
1.0680,2.000616,3.810369,1.809789,3.810369
1.0690,2.000632,3.883045,1.882443,3.883045
1.0700,2.000648,4.000649,2.000000,4.000649
1.0710,2.000664,4.118177,2.117557,4.118177
1.0720,2.000681,4.190883,2.190211,4.190883
1.0730,2.000697,4.190873,2.190211,4.190873
1.0740,2.000714,4.118214,2.117557,4.118214
1.0750,2.000731,4.000765,2.000000,4.000765
1.0760,2.000749,3.883245,1.882443,3.883245
1.0770,2.000766,3.810614,1.809789,3.810614
1.0780,2.000784,3.810565,1.809789,3.810565
1.0790,2.000802,3.883202,1.882443,3.883202
1.0800,2.000820,4.000824,2.000000,4.000824
1.0810,2.000838,4.118353,2.117557,4.118353
1.0820,2.000856,4.191089,2.190211,4.191089
1.0830,2.000875,4.191015,2.190211,4.191015
1.0840,2.000893,4.118460,2.117557,4.118460
1.0850,2.000912,4.000940,2.000000,4.000940
1.0860,2.000931,3.883341,1.882443,3.883341
1.0870,2.000950,3.810790,1.809789,3.810790
1.0880,2.000968,3.810757,1.809789,3.810757
1.0890,2.000988,3.883418,1.882443,3.883418
1.0900,2.001007,4.001019,2.000000,4.001019
1.0910,2.001026,4.118634,2.117557,4.118634
1.0920,2.001045,4.191264,2.190211,4.191264
1.0930,2.001064,4.191260,2.190211,4.191260
1.0940,2.001084,4.118688,2.117557,4.118688
1.0950,2.001103,4.001054,2.000000,4.001054
1.0960,2.001122,3.883612,1.882443,3.883612
1.0970,2.001141,3.810928,1.809789,3.810928
1.0980,2.001161,3.810910,1.809789,3.810910
1.0990,2.001180,3.883592,1.882443,3.883592
1.1000,2.001199,4.001217,2.000000,4.001217
1.1010,2.001218,4.118792,2.117557,4.118792
1.1020,2.001237,4.191454,2.190211,4.191454
1.1030,2.001256,4.191533,2.190211,4.191533
1.1040,2.001275,4.118791,2.117557,4.118791
1.1050,2.001293,4.001335,2.000000,4.001335
1.1060,2.001312,3.883713,1.882443,3.883713
1.1070,2.001330,3.811124,1.809789,3.811124
1.1080,2.001348,3.811195,1.809789,3.811195
1.1090,2.001366,3.883838,1.882443,3.883838
1.1100,2.001384,4.001388,2.000000,4.001388
1.1110,2.001402,4.118963,2.117557,4.118963
1.1120,2.001419,4.191661,2.190211,4.191661
1.1130,2.001436,4.191601,2.190211,4.191601
1.1140,2.001453,4.119039,2.117557,4.119039
1.1150,2.001470,4.001506,2.000000,4.001506
1.1160,2.001486,3.883935,1.882443,3.883935
1.1170,2.001503,3.811236,1.809789,3.811236
1.1180,2.001518,3.811254,1.809789,3.811254
1.1190,2.001534,3.883943,1.882443,3.883943
1.1200,2.001549,4.001541,2.000000,4.001541
1.1210,2.001564,4.119173,2.117557,4.119173
1.1220,2.001578,4.191772,2.190211,4.191772
1.1230,2.001592,4.191809,2.190211,4.191809
1.1240,2.001606,4.119253,2.117557,4.119253
1.1250,2.001620,4.001648,2.000000,4.001648
1.1260,2.001633,3.884098,1.882443,3.884098
1.1270,2.001645,3.811387,1.809789,3.811387
1.1280,2.001657,3.811487,1.809789,3.811487
1.1290,2.001669,3.884091,1.882443,3.884091
1.1300,2.001680,4.001689,2.000000,4.001689
1.1310,2.001691,4.119182,2.117557,4.119182
1.1320,2.001701,4.191901,2.190211,4.191901
1.1330,2.001711,4.191926,2.190211,4.191926
1.1340,2.001720,4.119312,2.117557,4.119312
1.1350,2.001729,4.001683,2.000000,4.001683
1.1360,2.001738,3.884207,1.882443,3.884207
1.1370,2.001746,3.811566,1.809789,3.811566
1.1380,2.001753,3.811540,1.809789,3.811540
1.1390,2.001760,3.884242,1.882443,3.884242
1.1400,2.001766,4.001692,2.000000,4.001692
1.1410,2.001772,4.119290,2.117557,4.119290
1.1420,2.001777,4.191964,2.190211,4.191964
1.1430,2.001782,4.192002,2.190211,4.192002
1.1440,2.001786,4.119313,2.117557,4.119313
1.1450,2.001790,4.001789,2.000000,4.001789
1.1460,2.001793,3.884221,1.882443,3.884221
1.1470,2.001795,3.811576,1.809789,3.811576
1.1480,2.001797,3.811631,1.809789,3.811631
1.1490,2.001799,3.884260,1.882443,3.884260
1.1500,2.001800,4.001759,2.000000,4.001759
1.1510,2.001800,4.119360,2.117557,4.119360
1.1520,2.001800,4.191984,2.190211,4.191984
1.1530,2.001799,4.192008,2.190211,4.192008
1.1540,2.001797,4.119360,2.117557,4.119360
1.1550,2.001795,4.001782,2.000000,4.001782
1.1560,2.001793,3.884255,1.882443,3.884255
1.1570,2.001790,3.811521,1.809789,3.811521
1.1580,2.001786,3.811577,1.809789,3.811577
1.1590,2.001782,3.884252,1.882443,3.884252
1.1600,2.001777,4.001708,2.000000,4.001708
1.1610,2.001772,4.119245,2.117557,4.119245
1.1620,2.001766,4.191924,2.190211,4.191924
1.1630,2.001760,4.192002,2.190211,4.192002
1.1640,2.001753,4.119381,2.117557,4.119381
1.1650,2.001746,4.001788,2.000000,4.001788
1.1660,2.001738,3.884192,1.882443,3.884192
1.1670,2.001729,3.811518,1.809789,3.811518
1.1680,2.001720,3.811517,1.809789,3.811517
1.1690,2.001711,3.884150,1.882443,3.884150
1.1700,2.001701,4.001750,2.000000,4.001750
1.1710,2.001691,4.119245,2.117557,4.119245
1.1720,2.001680,4.191940,2.190211,4.191940
1.1730,2.001669,4.191871,2.190211,4.191871
1.1740,2.001657,4.119141,2.117557,4.119141
1.1750,2.001645,4.001617,2.000000,4.001617
1.1760,2.001633,3.884060,1.882443,3.884060
1.1770,2.001620,3.811417,1.809789,3.811417
1.1780,2.001606,3.811433,1.809789,3.811433
1.1790,2.001592,3.884028,1.882443,3.884028
1.1800,2.001578,4.001542,2.000000,4.001542
1.1810,2.001564,4.119102,2.117557,4.119102
1.1820,2.001549,4.191786,2.190211,4.191786
1.1830,2.001534,4.191765,2.190211,4.191765
1.1840,2.001518,4.119058,2.117557,4.119058
1.1850,2.001503,4.001475,2.000000,4.001475
1.1860,2.001486,3.883957,1.882443,3.883957
1.1870,2.001470,3.811245,1.809789,3.811245
1.1880,2.001453,3.811263,1.809789,3.811263
1.1890,2.001436,3.883850,1.882443,3.883850
1.1900,2.001419,4.001420,2.000000,4.001420
1.1910,2.001402,4.118975,2.117557,4.118975
1.1920,2.001384,4.191579,2.190211,4.191579
1.1930,2.001366,4.191634,2.190211,4.191634
1.1940,2.001348,4.118933,2.117557,4.118933
1.1950,2.001330,4.001291,2.000000,4.001291
1.1960,2.001312,3.883810,1.882443,3.883810
1.1970,2.001293,3.811027,1.809789,3.811027
1.1980,2.001275,3.811056,1.809789,3.811056
1.1990,2.001256,3.883701,1.882443,3.883701
1.2000,2.001237,4.001237,2.000000,4.001237
1.2010,2.001218,4.118747,2.117557,4.118747
1.2020,2.001199,4.191429,2.190211,4.191429
1.2030,2.001180,4.191409,2.190211,4.191409
1.2040,2.001161,4.118731,2.117557,4.118731
1.2050,2.001141,4.001208,2.000000,4.001208
1.2060,2.001122,3.883480,1.882443,3.883480
1.2070,2.001103,3.810957,1.809789,3.810957
1.2080,2.001083,3.810879,1.809789,3.810879
1.2090,2.001064,3.883442,1.882443,3.883442
1.2100,2.001045,4.001027,2.000000,4.001027
1.2110,2.001026,4.118580,2.117557,4.118580
1.2120,2.001006,4.191167,2.190211,4.191167
1.2130,2.000987,4.191212,2.190211,4.191212
1.2140,2.000968,4.118517,2.117557,4.118517
1.2150,2.000949,4.000935,2.000000,4.000935
1.2160,2.000930,3.883394,1.882443,3.883394
1.2170,2.000911,3.810717,1.809789,3.810717
1.2180,2.000893,3.810693,1.809789,3.810693
1.2190,2.000874,3.883333,1.882443,3.883333
1.2200,2.000855,4.000856,2.000000,4.000856
1.2210,2.000837,4.118407,2.117557,4.118407
1.2220,2.000819,4.190983,2.190211,4.190983
1.2230,2.000801,4.190933,2.190211,4.190933
1.2240,2.000783,4.118285,2.117557,4.118285
1.2250,2.000765,4.000739,2.000000,4.000739
1.2260,2.000747,3.883202,1.882443,3.883202
1.2270,2.000730,3.810548,1.809789,3.810548
1.2280,2.000713,3.810518,1.809789,3.810518
1.2290,2.000696,3.883106,1.882443,3.883106
1.2300,2.000679,4.000659,2.000000,4.000659
1.2310,2.000662,4.118259,2.117557,4.118259
1.2320,2.000646,4.190806,2.190211,4.190806
1.2330,2.000629,4.190865,2.190211,4.190865
1.2340,2.000613,4.118254,2.117557,4.118254
1.2350,2.000598,4.000567,2.000000,4.000567
1.2360,2.000582,3.883069,1.882443,3.883069
1.2370,2.000567,3.810363,1.809789,3.810363
1.2380,2.000552,3.810310,1.809789,3.810310
1.2390,2.000537,3.882998,1.882443,3.882998
1.2400,2.000522,4.000500,2.000000,4.000500
1.2410,2.000508,4.118097,2.117557,4.118097
1.2420,2.000494,4.190771,2.190211,4.190771
1.2430,2.000480,4.190671,2.190211,4.190671
1.2440,2.000466,4.118003,2.117557,4.118003
1.2450,2.000453,4.000445,2.000000,4.000445
1.2460,2.000439,3.882880,1.882443,3.882880
1.2470,2.000426,3.810244,1.809789,3.810244
1.2480,2.000414,3.810144,1.809789,3.810144
1.2490,2.000401,3.882824,1.882443,3.882824
1.2500,2.000389,4.000354,2.000000,4.000354
1.2510,2.000377,4.117892,2.117557,4.117892
1.2520,2.000366,4.190524,2.190211,4.190524
1.2530,2.000354,4.190563,2.190211,4.190563
1.2540,2.000343,4.117873,2.117557,4.117873
1.2550,2.000332,4.000331,2.000000,4.000331
1.2560,2.000321,3.882804,1.882443,3.882804
1.2570,2.000311,3.810114,1.809789,3.810114
1.2580,2.000301,3.810031,1.809789,3.810031
1.2590,2.000291,3.882766,1.882443,3.882766
1.2600,2.000281,4.000283,2.000000,4.000283
1.2610,2.000272,4.117863,2.117557,4.117863
1.2620,2.000263,4.190448,2.190211,4.190448
1.2630,2.000254,4.190472,2.190211,4.190472
1.2640,2.000245,4.117798,2.117557,4.117798
1.2650,2.000236,4.000233,2.000000,4.000233
1.2660,2.000228,3.882637,1.882443,3.882637
1.2670,2.000220,3.809932,1.809789,3.809932
1.2680,2.000212,3.809991,1.809789,3.809991
1.2690,2.000204,3.882637,1.882443,3.882637
1.2700,2.000197,4.000233,2.000000,4.000233
1.2710,2.000190,4.117665,2.117557,4.117665
1.2720,2.000183,4.190411,2.190211,4.190411
1.2730,2.000176,4.190412,2.190211,4.190412
1.2740,2.000169,4.117666,2.117557,4.117666
1.2750,2.000163,4.000126,2.000000,4.000126
1.2760,2.000157,3.882555,1.882443,3.882555
1.2770,2.000151,3.809916,1.809789,3.809916
1.2780,2.000145,3.809920,1.809789,3.809920
1.2790,2.000139,3.882554,1.882443,3.882554
1.2800,2.000134,4.000092,2.000000,4.000092
1.2810,2.000128,4.117666,2.117557,4.117666
1.2820,2.000123,4.190361,2.190211,4.190361
1.2830,2.000118,4.190329,2.190211,4.190329
1.2840,2.000113,4.117681,2.117557,4.117681
1.2850,2.000109,4.000103,2.000000,4.000103
1.2860,2.000104,3.882497,1.882443,3.882497
1.2870,2.000100,3.809914,1.809789,3.809914
1.2880,2.000096,3.809905,1.809789,3.809905
1.2890,2.000092,3.882514,1.882443,3.882514
1.2900,2.000088,4.000081,2.000000,4.000081
1.2910,2.000084,4.117670,2.117557,4.117670
1.2920,2.000081,4.190261,2.190211,4.190261
1.2930,2.000077,4.190288,2.190211,4.190288
1.2940,2.000074,4.117654,2.117557,4.117654
1.2950,2.000070,4.000119,2.000000,4.000119
1.2960,2.000067,3.882490,1.882443,3.882490
1.2970,2.000064,3.809851,1.809789,3.809851
1.2980,2.000062,3.809844,1.809789,3.809844
1.2990,2.000059,3.882490,1.882443,3.882490
1.3000,2.000056,3.999996,2.000000,3.999996
1.3010,2.000054,4.117573,2.117557,4.117573
1.3020,2.000051,4.190332,2.190211,4.190332
1.3030,2.000049,4.190231,2.190211,4.190231
1.3040,2.000046,4.117622,2.117557,4.117622
1.3050,2.000044,3.999989,2.000000,3.999989
1.3060,2.000042,3.882516,1.882443,3.882516
1.3070,2.000040,3.809853,1.809789,3.809853
1.3080,2.000038,3.809859,1.809789,3.809859
1.3090,2.000036,3.882461,1.882443,3.882461
1.3100,2.000035,4.000061,2.000000,4.000061
1.3110,2.000033,4.117572,2.117557,4.117572
1.3120,2.000031,4.190206,2.190211,4.190206
1.3130,2.000030,4.190244,2.190211,4.190244
1.3140,2.000028,4.117584,2.117557,4.117584
1.3150,2.000027,4.000059,2.000000,4.000059
1.3160,2.000026,3.882444,1.882443,3.882444
1.3170,2.000024,3.809791,1.809789,3.809791
1.3180,2.000023,3.809818,1.809789,3.809818
1.3190,2.000022,3.882437,1.882443,3.882437
1.3200,2.000021,4.000042,2.000000,4.000042
1.3210,2.000020,4.117632,2.117557,4.117632
1.3220,2.000019,4.190209,2.190211,4.190209
1.3230,2.000018,4.190214,2.190211,4.190214
1.3240,2.000017,4.117605,2.117557,4.117605
1.3250,2.000016,3.999968,2.000000,3.999968
1.3260,2.000015,3.882431,1.882443,3.882431
1.3270,2.000014,3.809834,1.809789,3.809834
1.3280,2.000013,3.809714,1.809789,3.809714
1.3290,2.000013,3.882478,1.882443,3.882478
1.3300,2.000012,4.000011,2.000000,4.000011
1.3310,2.000011,4.117528,2.117557,4.117528
1.3320,2.000011,4.190259,2.190211,4.190259
1.3330,2.000010,4.190274,2.190211,4.190274
1.3340,2.000010,4.117575,2.117557,4.117575
1.3350,2.000009,4.000044,2.000000,4.000044
1.3360,2.000009,3.882411,1.882443,3.882411
1.3370,2.000008,3.809818,1.809789,3.809818
1.3380,2.000008,3.809783,1.809789,3.809783
1.3390,2.000007,3.882466,1.882443,3.882466
1.3400,2.000007,4.000002,2.000000,4.000002
1.3410,2.000006,4.117598,2.117557,4.117598
1.3420,2.000006,4.190251,2.190211,4.190251
1.3430,2.000006,4.190253,2.190211,4.190253
1.3440,2.000005,4.117583,2.117557,4.117583
1.3450,2.000005,4.000047,2.000000,4.000047
1.3460,2.000005,3.882487,1.882443,3.882487
1.3470,2.000004,3.809815,1.809789,3.809815
1.3480,2.000004,3.809717,1.809789,3.809717
1.3490,2.000004,3.882489,1.882443,3.882489
1.3500,2.000004,4.000041,2.000000,4.000041
1.3510,2.000003,4.117567,2.117557,4.117567
1.3520,2.000003,4.190200,2.190211,4.190200
1.3530,2.000003,4.190113,2.190211,4.190113
1.3540,2.000003,4.117562,2.117557,4.117562
1.3550,2.000003,3.999961,2.000000,3.999961
1.3560,2.000003,3.882461,1.882443,3.882461
1.3570,2.000002,3.809782,1.809789,3.809782
1.3580,2.000002,3.809859,1.809789,3.809859
1.3590,2.000002,3.882450,1.882443,3.882450
1.3600,2.000002,4.000015,2.000000,4.000015
1.3610,2.000002,4.117575,2.117557,4.117575
1.3620,2.000002,4.190270,2.190211,4.190270
1.3630,2.000002,4.190248,2.190211,4.190248
1.3640,2.000002,4.117543,2.117557,4.117543
1.3650,2.000001,3.999994,2.000000,3.999994
1.3660,2.000001,3.882448,1.882443,3.882448
1.3670,2.000001,3.809780,1.809789,3.809780
1.3680,2.000001,3.809781,1.809789,3.809781
1.3690,2.000001,3.882490,1.882443,3.882490
1.3700,2.000001,3.999973,2.000000,3.999973
1.3710,2.000001,4.117553,2.117557,4.117553
1.3720,2.000001,4.190256,2.190211,4.190256
1.3730,2.000001,4.190194,2.190211,4.190194
1.3740,2.000001,4.117553,2.117557,4.117553
1.3750,2.000001,3.999980,2.000000,3.999980
1.3760,2.000001,3.882389,1.882443,3.882389
1.3770,2.000001,3.809730,1.809789,3.809730
1.3780,2.000001,3.809765,1.809789,3.809765
1.3790,2.000001,3.882414,1.882443,3.882414
1.3800,2.000000,4.000008,2.000000,4.000008
1.3810,2.000000,4.117491,2.117557,4.117491
1.3820,2.000000,4.190214,2.190211,4.190214
1.3830,2.000000,4.190236,2.190211,4.190236
1.3840,2.000000,4.117543,2.117557,4.117543
1.3850,2.000000,4.000061,2.000000,4.000061
1.3860,2.000000,3.882387,1.882443,3.882387
1.3870,2.000000,3.809820,1.809789,3.809820
1.3880,2.000000,3.809771,1.809789,3.809771
1.3890,2.000000,3.882470,1.882443,3.882470
1.3900,2.000000,3.999960,2.000000,3.999960
1.3910,2.000000,4.117546,2.117557,4.117546
1.3920,2.000000,4.190229,2.190211,4.190229
1.3930,2.000000,4.190223,2.190211,4.190223
1.3940,2.000000,4.117567,2.117557,4.117567
1.3950,2.000000,3.999963,2.000000,3.999963
1.3960,2.000000,3.882396,1.882443,3.882396
1.3970,2.000000,3.809784,1.809789,3.809784
1.3980,2.000000,3.809804,1.809789,3.809804
1.3990,2.000000,3.882424,1.882443,3.882424
1.4000,2.000000,3.999984,2.000000,3.999984
1.4010,2.000000,4.117554,2.117557,4.117554
1.4020,2.000000,4.190259,2.190211,4.190259
1.4030,2.000000,4.190224,2.190211,4.190224
1.4040,2.000000,4.117571,2.117557,4.117571
1.4050,2.000000,3.999996,2.000000,3.999996
1.4060,2.000000,3.882462,1.882443,3.882462
1.4070,2.000000,3.809740,1.809789,3.809740
1.4080,2.000000,3.809735,1.809789,3.809735
1.4090,2.000000,3.882455,1.882443,3.882455
1.4100,2.000000,3.999994,2.000000,3.999994
1.4110,2.000000,4.117604,2.117557,4.117604
1.4120,2.000000,4.190236,2.190211,4.190236
1.4130,2.000000,4.190150,2.190211,4.190150
1.4140,2.000000,4.117590,2.117557,4.117590
1.4150,2.000000,3.999985,2.000000,3.999985
1.4160,2.000000,3.882475,1.882443,3.882475
1.4170,2.000000,3.809768,1.809789,3.809768
1.4180,2.000000,3.809803,1.809789,3.809803
1.4190,2.000000,3.882397,1.882443,3.882397
1.4200,2.000000,3.999945,2.000000,3.999945
1.4210,2.000000,4.117554,2.117557,4.117554
1.4220,2.000000,4.190244,2.190211,4.190244
1.4230,2.000000,4.190155,2.190211,4.190155
1.4240,2.000000,4.117544,2.117557,4.117544
1.4250,2.000000,3.999990,2.000000,3.999990
1.4260,2.000000,3.882458,1.882443,3.882458
1.4270,2.000000,3.809746,1.809789,3.809746
1.4280,2.000000,3.809793,1.809789,3.809793
1.4290,2.000000,3.882414,1.882443,3.882414
1.4300,2.000000,4.000046,2.000000,4.000046
1.4310,2.000000,4.117589,2.117557,4.117589
1.4320,2.000000,4.190261,2.190211,4.190261
1.4330,2.000000,4.190297,2.190211,4.190297
1.4340,2.000000,4.117603,2.117557,4.117603
1.4350,2.000000,4.000052,2.000000,4.000052
1.4360,2.000000,3.882478,1.882443,3.882478
1.4370,2.000000,3.809800,1.809789,3.809800
1.4380,2.000000,3.809767,1.809789,3.809767
1.4390,2.000000,3.882390,1.882443,3.882390
1.4400,2.000000,3.999980,2.000000,3.999980
1.4410,2.000000,4.117555,2.117557,4.117555
1.4420,2.000000,4.190247,2.190211,4.190247
1.4430,2.000000,4.190201,2.190211,4.190201
1.4440,2.000000,4.117531,2.117557,4.117531
1.4450,2.000000,4.000034,2.000000,4.000034
1.4460,2.000000,3.882372,1.882443,3.882372
1.4470,2.000000,3.809753,1.809789,3.809753
1.4480,2.000000,3.809841,1.809789,3.809841
1.4490,2.000000,3.882422,1.882443,3.882422
1.4500,2.000000,4.000035,2.000000,4.000035
1.4510,2.000000,4.117526,2.117557,4.117526
1.4520,2.000000,4.190222,2.190211,4.190222
1.4530,2.000000,4.190258,2.190211,4.190258
1.4540,2.000000,4.117493,2.117557,4.117493
1.4550,2.000000,4.000016,2.000000,4.000016
1.4560,2.000000,3.882450,1.882443,3.882450
1.4570,2.000000,3.809766,1.809789,3.809766
1.4580,2.000000,3.809728,1.809789,3.809728
1.4590,2.000000,3.882417,1.882443,3.882417
1.4600,2.000000,4.000066,2.000000,4.000066
1.4610,2.000000,4.117612,2.117557,4.117612
1.4620,2.000000,4.190183,2.190211,4.190183
1.4630,2.000000,4.190221,2.190211,4.190221
1.4640,2.000000,4.117572,2.117557,4.117572
1.4650,2.000000,4.000016,2.000000,4.000016
1.4660,2.000000,3.882477,1.882443,3.882477
1.4670,2.000000,3.809787,1.809789,3.809787
1.4680,2.000000,3.809776,1.809789,3.809776
1.4690,2.000000,3.882483,1.882443,3.882483
1.4700,2.000000,3.999983,2.000000,3.999983
1.4710,2.000000,4.117561,2.117557,4.117561
1.4720,2.000000,4.190223,2.190211,4.190223
1.4730,2.000000,4.190216,2.190211,4.190216
1.4740,2.000000,4.117617,2.117557,4.117617
1.4750,2.000000,4.000041,2.000000,4.000041
1.4760,2.000000,3.882432,1.882443,3.882432
1.4770,2.000000,3.809807,1.809789,3.809807
1.4780,2.000000,3.809761,1.809789,3.809761
1.4790,2.000000,3.882490,1.882443,3.882490
1.4800,2.000000,4.000095,2.000000,4.000095
1.4810,2.000000,4.117511,2.117557,4.117511
1.4820,2.000000,4.190244,2.190211,4.190244
1.4830,2.000000,4.190252,2.190211,4.190252
1.4840,2.000000,4.117571,2.117557,4.117571
1.4850,2.000000,4.000037,2.000000,4.000037
1.4860,2.000000,3.882442,1.882443,3.882442
1.4870,2.000000,3.809872,1.809789,3.809872
1.4880,2.000000,3.809745,1.809789,3.809745
1.4890,2.000000,3.882416,1.882443,3.882416
1.4900,2.000000,3.999978,2.000000,3.999978
1.4910,2.000000,4.117563,2.117557,4.117563
1.4920,2.000000,4.190215,2.190211,4.190215
1.4930,2.000000,4.190199,2.190211,4.190199
1.4940,2.000000,4.117576,2.117557,4.117576
1.4950,2.000000,3.999969,2.000000,3.999969
1.4960,2.000000,3.882497,1.882443,3.882497
1.4970,2.000000,3.809743,1.809789,3.809743
1.4980,2.000000,3.809734,1.809789,3.809734
1.4990,2.000000,3.882407,1.882443,3.882407
1.5000,2.000000,3.999986,2.000000,3.999986
1.5010,2.000000,4.117666,2.117557,4.117666
1.5020,2.000000,4.190191,2.190211,4.190191
1.5030,2.000000,4.190225,2.190211,4.190225
1.5040,2.000000,4.117552,2.117557,4.117552
1.5050,2.000000,4.000006,2.000000,4.000006
1.5060,2.000000,3.882444,1.882443,3.882444
1.5070,2.000000,3.809782,1.809789,3.809782
1.5080,2.000000,3.809775,1.809789,3.809775
1.5090,2.000000,3.882453,1.882443,3.882453
1.5100,2.000000,3.999950,2.000000,3.999950
1.5110,2.000000,4.117517,2.117557,4.117517
1.5120,2.000000,4.190157,2.190211,4.190157
1.5130,2.000000,4.190227,2.190211,4.190227
1.5140,2.000000,4.117572,2.117557,4.117572
1.5150,2.000000,3.999998,2.000000,3.999998
1.5160,2.000000,3.882442,1.882443,3.882442
1.5170,2.000000,3.809760,1.809789,3.809760
1.5180,2.000000,3.809786,1.809789,3.809786
1.5190,2.000000,3.882463,1.882443,3.882463
1.5200,2.000000,4.000004,2.000000,4.000004
1.5210,2.000000,4.117543,2.117557,4.117543
1.5220,2.000000,4.190242,2.190211,4.190242
1.5230,2.000000,4.190181,2.190211,4.190181
1.5240,2.000000,4.117588,2.117557,4.117588
1.5250,2.000000,3.999966,2.000000,3.999966
1.5260,2.000000,3.882376,1.882443,3.882376
1.5270,2.000000,3.809867,1.809789,3.809867
1.5280,2.000000,3.809808,1.809789,3.809808
1.5290,2.000000,3.882491,1.882443,3.882491
1.5300,2.000000,3.999952,2.000000,3.999952
1.5310,2.000000,4.117544,2.117557,4.117544
1.5320,2.000000,4.190213,2.190211,4.190213
1.5330,2.000000,4.190183,2.190211,4.190183
1.5340,2.000000,4.117560,2.117557,4.117560
1.5350,2.000000,3.999953,2.000000,3.999953
1.5360,2.000000,3.882483,1.882443,3.882483
1.5370,2.000000,3.809868,1.809789,3.809868
1.5380,2.000000,3.809804,1.809789,3.809804
1.5390,2.000000,3.882480,1.882443,3.882480
1.5400,2.000000,4.000001,2.000000,4.000001
1.5410,2.000000,4.117411,2.117557,4.117411
1.5420,2.000000,4.190195,2.190211,4.190195
1.5430,2.000000,4.190170,2.190211,4.190170
1.5440,2.000000,4.117582,2.117557,4.117582
1.5450,2.000000,3.999975,2.000000,3.999975
1.5460,2.000000,3.882446,1.882443,3.882446
1.5470,2.000000,3.809741,1.809789,3.809741
1.5480,2.000000,3.809792,1.809789,3.809792
1.5490,2.000000,3.882505,1.882443,3.882505
1.5500,2.000000,4.000017,2.000000,4.000017
1.5510,2.000000,4.117580,2.117557,4.117580
1.5520,2.000000,4.190222,2.190211,4.190222
1.5530,2.000000,4.190295,2.190211,4.190295
1.5540,2.000000,4.117602,2.117557,4.117602
1.5550,2.000000,3.999998,2.000000,3.999998
1.5560,2.000000,3.882425,1.882443,3.882425
1.5570,2.000000,3.809793,1.809789,3.809793
1.5580,2.000000,3.809817,1.809789,3.809817
1.5590,2.000000,3.882451,1.882443,3.882451
1.5600,2.000000,3.999989,2.000000,3.999989
1.5610,2.000000,4.117547,2.117557,4.117547
1.5620,2.000000,4.190201,2.190211,4.190201
1.5630,2.000000,4.190235,2.190211,4.190235
1.5640,2.000000,4.117618,2.117557,4.117618
1.5650,2.000000,3.999979,2.000000,3.999979
1.5660,2.000000,3.882427,1.882443,3.882427
1.5670,2.000000,3.809761,1.809789,3.809761
1.5680,2.000000,3.809783,1.809789,3.809783
1.5690,2.000000,3.882429,1.882443,3.882429
1.5700,2.000000,4.000042,2.000000,4.000042
1.5710,2.000000,4.117588,2.117557,4.117588
1.5720,2.000000,4.190145,2.190211,4.190145
1.5730,2.000000,4.190224,2.190211,4.190224
1.5740,2.000000,4.117523,2.117557,4.117523
1.5750,2.000000,3.999960,2.000000,3.999960
1.5760,2.000000,3.882370,1.882443,3.882370
1.5770,2.000000,3.809822,1.809789,3.809822
1.5780,2.000000,3.809736,1.809789,3.809736
1.5790,2.000000,3.882445,1.882443,3.882445
1.5800,2.000000,4.000067,2.000000,4.000067
1.5810,2.000000,4.117571,2.117557,4.117571
1.5820,2.000000,4.190226,2.190211,4.190226
1.5830,2.000000,4.190195,2.190211,4.190195
1.5840,2.000000,4.117573,2.117557,4.117573
1.5850,2.000000,4.000018,2.000000,4.000018
1.5860,2.000000,3.882430,1.882443,3.882430
1.5870,2.000000,3.809792,1.809789,3.809792
1.5880,2.000000,3.809791,1.809789,3.809791
1.5890,2.000000,3.882440,1.882443,3.882440
1.5900,2.000000,4.000011,2.000000,4.000011
1.5910,2.000000,4.117573,2.117557,4.117573
1.5920,2.000000,4.190240,2.190211,4.190240
1.5930,2.000000,4.190156,2.190211,4.190156
1.5940,2.000000,4.117506,2.117557,4.117506
1.5950,2.000000,4.000029,2.000000,4.000029
1.5960,2.000000,3.882473,1.882443,3.882473
1.5970,2.000000,3.809746,1.809789,3.809746
1.5980,2.000000,3.809740,1.809789,3.809740
1.5990,2.000000,3.882442,1.882443,3.882442
1.6000,2.000000,4.000037,2.000000,4.000037
1.6010,2.000000,4.117566,2.117557,4.117566
1.6020,2.000000,4.190233,2.190211,4.190233
1.6030,2.000000,4.190237,2.190211,4.190237
1.6040,2.000000,4.117668,2.117557,4.117668
1.6050,2.000000,3.999980,2.000000,3.999980
1.6060,2.000000,3.882442,1.882443,3.882442
1.6070,2.000000,3.809782,1.809789,3.809782
1.6080,2.000000,3.809790,1.809789,3.809790
1.6090,2.000000,3.882462,1.882443,3.882462
1.6100,2.000000,3.999915,2.000000,3.999915
1.6110,2.000000,4.117600,2.117557,4.117600
1.6120,2.000000,4.190169,2.190211,4.190169
1.6130,2.000373,4.190578,2.190211,4.190578
1.6140,2.000394,4.117996,2.117557,4.117996
1.6150,2.000416,4.000353,2.000000,4.000353
1.6160,2.000440,3.882866,1.882443,3.882866
1.6170,2.000464,3.810210,1.809789,3.810210
1.6180,2.000489,3.810270,1.809789,3.810270
1.6190,2.000515,3.882988,1.882443,3.882988
1.6200,2.000543,4.000592,2.000000,4.000592
1.6210,2.000572,4.118131,2.117557,4.118131
1.6220,2.000601,4.190909,2.190211,4.190909
1.6230,2.000632,4.190846,2.190211,4.190846
1.6240,2.000665,4.118253,2.117557,4.118253
1.6250,2.000698,4.000687,2.000000,4.000687
1.6260,2.000733,3.883156,1.882443,3.883156
1.6270,2.000769,3.810516,1.809789,3.810516
1.6280,2.000806,3.810578,1.809789,3.810578
1.6290,2.000845,3.883266,1.882443,3.883266
1.6300,2.000885,4.000879,2.000000,4.000879
1.6310,2.000927,4.118449,2.117557,4.118449
1.6320,2.000970,4.191091,2.190211,4.191091
1.6330,2.001014,4.191188,2.190211,4.191188
1.6340,2.001060,4.118648,2.117557,4.118648
1.6350,2.001107,4.001118,2.000000,4.001118
1.6360,2.001156,3.883636,1.882443,3.883636
1.6370,2.001206,3.810983,1.809789,3.810983
1.6380,2.001258,3.810958,1.809789,3.810958
1.6390,2.001311,3.883721,1.882443,3.883721
1.6400,2.001365,4.001394,2.000000,4.001394
1.6410,2.001422,4.118947,2.117557,4.118947
1.6420,2.001479,4.191701,2.190211,4.191701
1.6430,2.001538,4.191764,2.190211,4.191764
1.6440,2.001599,4.119166,2.117557,4.119166
1.6450,2.001661,4.001647,2.000000,4.001647
1.6460,2.001724,3.884182,1.882443,3.884182
1.6470,2.001789,3.811579,1.809789,3.811579
1.6480,2.001855,3.811560,1.809789,3.811560
1.6490,2.001923,3.884325,1.882443,3.884325
1.6500,2.001992,4.002019,2.000000,4.002019
1.6510,2.002063,4.119601,2.117557,4.119601
1.6520,2.002134,4.192329,2.190211,4.192329
1.6530,2.002207,4.192417,2.190211,4.192417
1.6540,2.002281,4.119840,2.117557,4.119840
1.6550,2.002357,4.002322,2.000000,4.002322
1.6560,2.002433,3.884887,1.882443,3.884887
1.6570,2.002511,3.812275,1.809789,3.812275
1.6580,2.002590,3.812416,1.809789,3.812416
1.6590,2.002669,3.885076,1.882443,3.885076
1.6600,2.002750,4.002799,2.000000,4.002799
1.6610,2.002831,4.120415,2.117557,4.120415
1.6620,2.002913,4.193147,2.190211,4.193147
1.6630,2.002996,4.193223,2.190211,4.193223
1.6640,2.003080,4.120629,2.117557,4.120629
1.6650,2.003164,4.003160,2.000000,4.003160
1.6660,2.003248,3.885705,1.882443,3.885705
1.6670,2.003333,3.813131,1.809789,3.813131
1.6680,2.003419,3.813198,1.809789,3.813198
1.6690,2.003504,3.885918,1.882443,3.885918
1.6700,2.003590,4.003642,2.000000,4.003642
1.6710,2.003676,4.121175,2.117557,4.121175
1.6720,2.003761,4.193941,2.190211,4.193941
1.6730,2.003847,4.194063,2.190211,4.194063
1.6740,2.003932,4.121487,2.117557,4.121487
1.6750,2.004017,4.004007,2.000000,4.004007
1.6760,2.004102,3.886611,1.882443,3.886611
1.6770,2.004186,3.813994,1.809789,3.813994
1.6780,2.004269,3.814068,1.809789,3.814068
1.6790,2.004352,3.886729,1.882443,3.886729
1.6800,2.004434,4.004397,2.000000,4.004397
1.6810,2.004515,4.122092,2.117557,4.122092
1.6820,2.004594,4.194748,2.190211,4.194748
1.6830,2.004673,4.194841,2.190211,4.194841
1.6840,2.004750,4.122245,2.117557,4.122245
1.6850,2.004826,4.004815,2.000000,4.004815
1.6860,2.004900,3.887383,1.882443,3.887383
1.6870,2.004973,3.814733,1.809789,3.814733
1.6880,2.005044,3.814800,1.809789,3.814800
1.6890,2.005113,3.887528,1.882443,3.887528
1.6900,2.005180,4.005171,2.000000,4.005171
1.6910,2.005245,4.122755,2.117557,4.122755
1.6920,2.005308,4.195496,2.190211,4.195496
1.6930,2.005369,4.195603,2.190211,4.195603
1.6940,2.005427,4.122934,2.117557,4.122934
1.6950,2.005484,4.005521,2.000000,4.005521
1.6960,2.005537,3.888002,1.882443,3.888002
1.6970,2.005588,3.815347,1.809789,3.815347
1.6980,2.005636,3.815465,1.809789,3.815465
1.6990,2.005682,3.888084,1.882443,3.888084
1.7000,2.005725,4.005728,2.000000,4.005728
1.7010,2.005765,4.123326,2.117557,4.123326
1.7020,2.005802,4.196005,2.190211,4.196005
1.7030,2.005836,4.196012,2.190211,4.196012
1.7040,2.005866,4.123385,2.117557,4.123385
1.7050,2.005894,4.005887,2.000000,4.005887
1.7060,2.005919,3.888356,1.882443,3.888356
1.7070,2.005940,3.815754,1.809789,3.815754
1.7080,2.005958,3.815760,1.809789,3.815760
1.7090,2.005973,3.888356,1.882443,3.888356
1.7100,2.005985,4.006009,2.000000,4.006009
1.7110,2.005993,4.123570,2.117557,4.123570
1.7120,2.005998,4.196255,2.190211,4.196255
1.7130,2.006000,4.196127,2.190211,4.196127
1.7140,2.005998,4.123589,2.117557,4.123589
1.7150,2.005993,4.006036,2.000000,4.006036
1.7160,2.005985,3.888420,1.882443,3.888420
1.7170,2.005973,3.815822,1.809789,3.815822
1.7180,2.005959,3.815759,1.809789,3.815759
1.7190,2.005940,3.888343,1.882443,3.888343
1.7200,2.005919,4.005937,2.000000,4.005937
1.7210,2.005894,4.123457,2.117557,4.123457
1.7220,2.005867,4.196098,2.190211,4.196098
1.7230,2.005836,4.196116,2.190211,4.196116
1.7240,2.005802,4.123327,2.117557,4.123327
1.7250,2.005765,4.005801,2.000000,4.005801
1.7260,2.005725,3.888232,1.882443,3.888232
1.7270,2.005682,3.815449,1.809789,3.815449
1.7280,2.005637,3.815433,1.809789,3.815433
1.7290,2.005588,3.888058,1.882443,3.888058
1.7300,2.005537,4.005471,2.000000,4.005471
1.7310,2.005484,4.123010,2.117557,4.123010
1.7320,2.005428,4.195644,2.190211,4.195644
1.7330,2.005369,4.195602,2.190211,4.195602
1.7340,2.005309,4.122898,2.117557,4.122898
1.7350,2.005246,4.005240,2.000000,4.005240
1.7360,2.005181,3.887685,1.882443,3.887685
1.7370,2.005113,3.814946,1.809789,3.814946
1.7380,2.005044,3.814801,1.809789,3.814801
1.7390,2.004973,3.887416,1.882443,3.887416
1.7400,2.004901,4.004904,2.000000,4.004904
1.7410,2.004827,4.122451,2.117557,4.122451
1.7420,2.004751,4.195025,2.190211,4.195025
1.7430,2.004674,4.194832,2.190211,4.194832
1.7440,2.004595,4.122213,2.117557,4.122213
1.7450,2.004516,4.004509,2.000000,4.004509
1.7460,2.004435,3.886862,1.882443,3.886862
1.7470,2.004353,3.814134,1.809789,3.814134
1.7480,2.004271,3.814071,1.809789,3.814071
1.7490,2.004187,3.886597,1.882443,3.886597
1.7500,2.004103,4.004109,2.000000,4.004109
1.7510,2.004019,4.121579,2.117557,4.121579
1.7520,2.003934,4.194107,2.190211,4.194107
1.7530,2.003849,4.194117,2.190211,4.194117
1.7540,2.003763,4.121292,2.117557,4.121292
1.7550,2.003678,4.003712,2.000000,4.003712
1.7560,2.003592,3.886135,1.882443,3.886135
1.7570,2.003507,3.813247,1.809789,3.813247
1.7580,2.003421,3.813269,1.809789,3.813269
1.7590,2.003336,3.885790,1.882443,3.885790
1.7600,2.003251,4.003281,2.000000,4.003281
1.7610,2.003167,4.120726,2.117557,4.120726
1.7620,2.003083,4.193224,2.190211,4.193224
1.7630,2.003000,4.193167,2.190211,4.193167
1.7640,2.002917,4.120430,2.117557,4.120430
1.7650,2.002835,4.002791,2.000000,4.002791
1.7660,2.002754,3.885246,1.882443,3.885246
1.7670,2.002674,3.812475,1.809789,3.812475
1.7680,2.002594,3.812368,1.809789,3.812368
1.7690,2.002516,3.884959,1.882443,3.884959
1.7700,2.002439,4.002511,2.000000,4.002511
1.7710,2.002362,4.120010,2.117557,4.120010
1.7720,2.002287,4.192510,2.190211,4.192510
1.7730,2.002214,4.192390,2.190211,4.192390
1.7740,2.002141,4.119678,2.117557,4.119678
1.7750,2.002070,4.002072,2.000000,4.002072
1.7760,2.002000,3.884465,1.882443,3.884465
1.7770,2.001931,3.811753,1.809789,3.811753
1.7780,2.001864,3.811732,1.809789,3.811732
1.7790,2.001798,3.884333,1.882443,3.884333
1.7800,2.001734,4.001685,2.000000,4.001685
1.7810,2.001671,4.119246,2.117557,4.119246
1.7820,2.001610,4.191818,2.190211,4.191818
1.7830,2.001550,4.191786,2.190211,4.191786
1.7840,2.001491,4.119044,2.117557,4.119044
1.7850,2.001434,4.001498,2.000000,4.001498
1.7860,2.001379,3.883900,1.882443,3.883900
1.7870,2.001325,3.811085,1.809789,3.811085
1.7880,2.001273,3.811056,1.809789,3.811056
1.7890,2.001222,3.883649,1.882443,3.883649
1.7900,2.001173,4.001153,2.000000,4.001153
1.7910,2.001125,4.118690,2.117557,4.118690
1.7920,2.001079,4.191246,2.190211,4.191246
1.7930,2.001034,4.191258,2.190211,4.191258
1.7940,2.000990,4.118520,2.117557,4.118520
1.7950,2.000949,4.001015,2.000000,4.001015
1.7960,2.000908,3.883395,1.882443,3.883395
1.7970,2.000869,3.810678,1.809789,3.810678
1.7980,2.000832,3.810611,1.809789,3.810611
1.7990,2.000796,3.883235,1.882443,3.883235
1.8000,2.000761,4.000793,2.000000,4.000793
1.8010,2.000728,4.118308,2.117557,4.118308
1.8020,2.000696,4.190945,2.190211,4.190945
1.8030,2.000665,4.190865,2.190211,4.190865
1.8040,2.000636,4.118232,2.117557,4.118232
1.8050,2.000608,4.000683,2.000000,4.000683
1.8060,2.000581,3.883064,1.882443,3.883064
1.8070,2.000556,3.810356,1.809789,3.810356
1.8080,2.000531,3.810325,1.809789,3.810325
1.8090,2.000508,3.882930,1.882443,3.882930
1.8100,2.000486,4.000514,2.000000,4.000514
1.8110,2.000465,4.117949,2.117557,4.117949
1.8120,2.000445,4.190657,2.190211,4.190657
1.8130,2.000427,4.190645,2.190211,4.190645
1.8140,2.000409,4.117942,2.117557,4.117942
1.8150,2.000392,4.000356,2.000000,4.000356
1.8160,2.000376,3.882821,1.882443,3.882821
1.8170,2.000362,3.810141,1.809789,3.810141
1.8180,2.000348,3.810141,1.809789,3.810141
1.8190,2.000335,3.882729,1.882443,3.882729
1.8200,2.000323,4.000306,2.000000,4.000306
1.8210,2.000312,4.117912,2.117557,4.117912
1.8220,2.000302,4.190514,2.190211,4.190514
1.8230,2.000292,4.190538,2.190211,4.190538
1.8240,2.000284,4.117843,2.117557,4.117843
1.8250,2.000276,4.000337,2.000000,4.000337
1.8260,2.000269,3.882753,1.882443,3.882753
1.8270,2.000262,3.810009,1.809789,3.810009
1.8280,2.000257,3.810056,1.809789,3.810056
1.8290,2.000252,3.882671,1.882443,3.882671
1.8300,2.000247,4.000240,2.000000,4.000240
1.8310,2.000244,4.117805,2.117557,4.117805
1.8320,2.000241,4.190451,2.190211,4.190451
1.8330,2.000238,4.190485,2.190211,4.190485
1.8340,2.000236,4.117731,2.117557,4.117731
1.8350,2.000235,4.000270,2.000000,4.000270
1.8360,2.000235,3.882630,1.882443,3.882630
1.8370,2.000234,3.810035,1.809789,3.810035
1.8380,2.000235,3.810075,1.809789,3.810075
1.8390,2.000236,3.882679,1.882443,3.882679
1.8400,2.000237,4.000214,2.000000,4.000214
1.8410,2.000239,4.117773,2.117557,4.117773
1.8420,2.000242,4.190473,2.190211,4.190473
1.8430,2.000245,4.190477,2.190211,4.190477
1.8440,2.000248,4.117793,2.117557,4.117793
1.8450,2.000252,4.000197,2.000000,4.000197
1.8460,2.000256,3.882655,1.882443,3.882655
1.8470,2.000261,3.810029,1.809789,3.810029
1.8480,2.000266,3.810054,1.809789,3.810054
1.8490,2.000271,3.882703,1.882443,3.882703
1.8500,2.000277,4.000278,2.000000,4.000278
1.8510,2.000284,4.117760,2.117557,4.117760
1.8520,2.000291,4.190469,2.190211,4.190469
1.8530,2.000298,4.190504,2.190211,4.190504
1.8540,2.000305,4.117872,2.117557,4.117872
1.8550,2.000313,4.000285,2.000000,4.000285
1.8560,2.000321,3.882824,1.882443,3.882824
1.8570,2.000330,3.810151,1.809789,3.810151
1.8580,2.000339,3.810120,1.809789,3.810120
1.8590,2.000348,3.882793,1.882443,3.882793
1.8600,2.000358,4.000391,2.000000,4.000391
1.8610,2.000368,4.117881,2.117557,4.117881
1.8620,2.000378,4.190601,2.190211,4.190601
1.8630,2.000389,4.190648,2.190211,4.190648
1.8640,2.000400,4.117970,2.117557,4.117970
1.8650,2.000411,4.000419,2.000000,4.000419
1.8660,2.000423,3.882894,1.882443,3.882894
1.8670,2.000435,3.810229,1.809789,3.810229
1.8680,2.000447,3.810152,1.809789,3.810152
1.8690,2.000460,3.882923,1.882443,3.882923
1.8700,2.000472,4.000472,2.000000,4.000472
1.8710,2.000485,4.118067,2.117557,4.118067
1.8720,2.000499,4.190728,2.190211,4.190728
1.8730,2.000513,4.190727,2.190211,4.190727
1.8740,2.000527,4.118059,2.117557,4.118059
1.8750,2.000541,4.000563,2.000000,4.000563
1.8760,2.000555,3.882934,1.882443,3.882934
1.8770,2.000570,3.810383,1.809789,3.810383
1.8780,2.000585,3.810349,1.809789,3.810349
1.8790,2.000601,3.883011,1.882443,3.883011
1.8800,2.000616,4.000584,2.000000,4.000584
1.8810,2.000632,4.118235,2.117557,4.118235
1.8820,2.000648,4.190824,2.190211,4.190824
1.8830,2.000664,4.190904,2.190211,4.190904
1.8840,2.000681,4.118268,2.117557,4.118268
1.8850,2.000697,4.000694,2.000000,4.000694
1.8860,2.000714,3.883191,1.882443,3.883191
1.8870,2.000731,3.810448,1.809789,3.810448
1.8880,2.000749,3.810510,1.809789,3.810510
1.8890,2.000766,3.883221,1.882443,3.883221
1.8900,2.000784,4.000870,2.000000,4.000870
1.8910,2.000802,4.118403,2.117557,4.118403
1.8920,2.000820,4.191043,2.190211,4.191043
1.8930,2.000838,4.191024,2.190211,4.191024
1.8940,2.000856,4.118394,2.117557,4.118394
1.8950,2.000875,4.000875,2.000000,4.000875
1.8960,2.000893,3.883344,1.882443,3.883344
1.8970,2.000912,3.810634,1.809789,3.810634
1.8980,2.000931,3.810676,1.809789,3.810676
1.8990,2.000950,3.883408,1.882443,3.883408
1.9000,2.000968,4.000984,2.000000,4.000984
1.9010,2.000988,4.118566,2.117557,4.118566
1.9020,2.001007,4.191308,2.190211,4.191308
1.9030,2.001026,4.191254,2.190211,4.191254
1.9040,2.001045,4.118636,2.117557,4.118636
1.9050,2.001064,4.001075,2.000000,4.001075
1.9060,2.001084,3.883504,1.882443,3.883504
1.9070,2.001103,3.810908,1.809789,3.810908
1.9080,2.001122,3.810873,1.809789,3.810873
1.9090,2.001141,3.883514,1.882443,3.883514
1.9100,2.001161,4.001137,2.000000,4.001137
1.9110,2.001180,4.118717,2.117557,4.118717
1.9120,2.001199,4.191414,2.190211,4.191414
1.9130,2.001218,4.191445,2.190211,4.191445
1.9140,2.001237,4.118734,2.117557,4.118734
1.9150,2.001256,4.001319,2.000000,4.001319
1.9160,2.001275,3.883700,1.882443,3.883700
1.9170,2.001293,3.811100,1.809789,3.811100
1.9180,2.001312,3.811114,1.809789,3.811114
1.9190,2.001330,3.883781,1.882443,3.883781
1.9200,2.001348,4.001329,2.000000,4.001329
1.9210,2.001366,4.118935,2.117557,4.118935
1.9220,2.001384,4.191609,2.190211,4.191609
1.9230,2.001402,4.191610,2.190211,4.191610
1.9240,2.001419,4.119004,2.117557,4.119004
1.9250,2.001436,4.001492,2.000000,4.001492
1.9260,2.001453,3.883869,1.882443,3.883869
1.9270,2.001470,3.811290,1.809789,3.811290
1.9280,2.001486,3.811227,1.809789,3.811227
1.9290,2.001503,3.883980,1.882443,3.883980
1.9300,2.001518,4.001561,2.000000,4.001561
1.9310,2.001534,4.119067,2.117557,4.119067
1.9320,2.001549,4.191797,2.190211,4.191797
1.9330,2.001564,4.191771,2.190211,4.191771
1.9340,2.001578,4.119112,2.117557,4.119112
1.9350,2.001592,4.001582,2.000000,4.001582
1.9360,2.001606,3.884096,1.882443,3.884096
1.9370,2.001620,3.811418,1.809789,3.811418
1.9380,2.001633,3.811424,1.809789,3.811424
1.9390,2.001645,3.884183,1.882443,3.884183
1.9400,2.001657,4.001701,2.000000,4.001701
1.9410,2.001669,4.119217,2.117557,4.119217
1.9420,2.001680,4.191875,2.190211,4.191875
1.9430,2.001691,4.191877,2.190211,4.191877
1.9440,2.001701,4.119195,2.117557,4.119195
1.9450,2.001711,4.001638,2.000000,4.001638
1.9460,2.001720,3.884161,1.882443,3.884161
1.9470,2.001729,3.811525,1.809789,3.811525
1.9480,2.001738,3.811552,1.809789,3.811552
1.9490,2.001746,3.884120,1.882443,3.884120
1.9500,2.001753,4.001754,2.000000,4.001754
1.9510,2.001760,4.119289,2.117557,4.119289
1.9520,2.001766,4.192017,2.190211,4.192017
1.9530,2.001772,4.192024,2.190211,4.192024
1.9540,2.001777,4.119312,2.117557,4.119312
1.9550,2.001782,4.001797,2.000000,4.001797
1.9560,2.001786,3.884234,1.882443,3.884234
1.9570,2.001790,3.811569,1.809789,3.811569
1.9580,2.001793,3.811599,1.809789,3.811599
1.9590,2.001795,3.884218,1.882443,3.884218
1.9600,2.001797,4.001817,2.000000,4.001817
1.9610,2.001799,4.119358,2.117557,4.119358
1.9620,2.001800,4.192039,2.190211,4.192039
1.9630,2.001800,4.191973,2.190211,4.191973
1.9640,2.001800,4.119348,2.117557,4.119348
1.9650,2.001799,4.001831,2.000000,4.001831
1.9660,2.001797,3.884182,1.882443,3.884182
1.9670,2.001795,3.811600,1.809789,3.811600
1.9680,2.001793,3.811625,1.809789,3.811625
1.9690,2.001790,3.884270,1.882443,3.884270
1.9700,2.001786,4.001797,2.000000,4.001797
1.9710,2.001782,4.119290,2.117557,4.119290
1.9720,2.001777,4.191973,2.190211,4.191973
1.9730,2.001772,4.191998,2.190211,4.191998
1.9740,2.001766,4.119317,2.117557,4.119317
1.9750,2.001760,4.001723,2.000000,4.001723
1.9760,2.001753,3.884208,1.882443,3.884208
1.9770,2.001746,3.811581,1.809789,3.811581
1.9780,2.001738,3.811469,1.809789,3.811469
1.9790,2.001729,3.884186,1.882443,3.884186
1.9800,2.001720,4.001740,2.000000,4.001740
1.9810,2.001711,4.119216,2.117557,4.119216
1.9820,2.001701,4.191866,2.190211,4.191866
1.9830,2.001691,4.191978,2.190211,4.191978
1.9840,2.001680,4.119249,2.117557,4.119249
1.9850,2.001669,4.001676,2.000000,4.001676
1.9860,2.001657,3.884132,1.882443,3.884132
1.9870,2.001645,3.811493,1.809789,3.811493
1.9880,2.001633,3.811452,1.809789,3.811452
1.9890,2.001620,3.884032,1.882443,3.884032
1.9900,2.001606,4.001624,2.000000,4.001624
1.9910,2.001592,4.119176,2.117557,4.119176
1.9920,2.001578,4.191767,2.190211,4.191767
1.9930,2.001564,4.191826,2.190211,4.191826
1.9940,2.001549,4.119153,2.117557,4.119153
1.9950,2.001534,4.001521,2.000000,4.001521
1.9960,2.001518,3.883984,1.882443,3.883984
1.9970,2.001503,3.811321,1.809789,3.811321
1.9980,2.001486,3.811231,1.809789,3.811231
1.9990,2.001470,3.883898,1.882443,3.883898
2.0000,2.001453,4.001451,2.000000,4.001451
2.0010,2.001436,4.118976,2.117557,4.118976
2.0020,2.001419,4.191662,2.190211,4.191662
2.0030,2.001402,4.191630,2.190211,4.191630
2.0040,2.001384,4.118957,2.117557,4.118957
2.0050,2.001366,4.001369,2.000000,4.001369
2.0060,2.001348,3.883824,1.882443,3.883824
2.0070,2.001330,3.811114,1.809789,3.811114
2.0080,2.001312,3.811064,1.809789,3.811064
2.0090,2.001293,3.883773,1.882443,3.883773
2.0100,2.001275,4.001273,2.000000,4.001273
2.0110,2.001256,4.118768,2.117557,4.118768
2.0120,2.001237,4.191413,2.190211,4.191413
2.0130,2.001218,4.191460,2.190211,4.191460
2.0140,2.001199,4.118731,2.117557,4.118731
2.0150,2.001180,4.001197,2.000000,4.001197
2.0160,2.001161,3.883589,1.882443,3.883589
2.0170,2.001141,3.810942,1.809789,3.810942
2.0180,2.001122,3.810886,1.809789,3.810886
2.0190,2.001103,3.883520,1.882443,3.883520
2.0200,2.001083,4.001040,2.000000,4.001040
2.0210,2.001064,4.118633,2.117557,4.118633
2.0220,2.001045,4.191295,2.190211,4.191295
2.0230,2.001026,4.191291,2.190211,4.191291
2.0240,2.001006,4.118531,2.117557,4.118531
2.0250,2.000987,4.000913,2.000000,4.000913
2.0260,2.000968,3.883407,1.882443,3.883407
2.0270,2.000949,3.810710,1.809789,3.810710
2.0280,2.000930,3.810716,1.809789,3.810716
2.0290,2.000911,3.883363,1.882443,3.883363
2.0300,2.000893,4.000865,2.000000,4.000865
2.0310,2.000874,4.118485,2.117557,4.118485
2.0320,2.000855,4.191066,2.190211,4.191066
2.0330,2.000837,4.191016,2.190211,4.191016
2.0340,2.000819,4.118424,2.117557,4.118424
2.0350,2.000801,4.000803,2.000000,4.000803
2.0360,2.000783,3.883210,1.882443,3.883210
2.0370,2.000765,3.810575,1.809789,3.810575
2.0380,2.000747,3.810532,1.809789,3.810532
2.0390,2.000730,3.883196,1.882443,3.883196
2.0400,2.000713,4.000681,2.000000,4.000681
2.0410,2.000696,4.118273,2.117557,4.118273
2.0420,2.000679,4.190828,2.190211,4.190828
2.0430,2.000662,4.190844,2.190211,4.190844
2.0440,2.000646,4.118213,2.117557,4.118213
2.0450,2.000629,4.000679,2.000000,4.000679
2.0460,2.000613,3.883052,1.882443,3.883052
2.0470,2.000598,3.810396,1.809789,3.810396
2.0480,2.000582,3.810374,1.809789,3.810374
2.0490,2.000567,3.882970,1.882443,3.882970
2.0500,2.000552,4.000564,2.000000,4.000564
2.0510,2.000537,4.118110,2.117557,4.118110
2.0520,2.000522,4.190774,2.190211,4.190774
2.0530,2.000508,4.190732,2.190211,4.190732
2.0540,2.000494,4.117975,2.117557,4.117975
2.0550,2.000480,4.000494,2.000000,4.000494
2.0560,2.000466,3.882852,1.882443,3.882852
2.0570,2.000453,3.810288,1.809789,3.810288
2.0580,2.000439,3.810163,1.809789,3.810163
2.0590,2.000426,3.882839,1.882443,3.882839
2.0600,2.000414,4.000382,2.000000,4.000382
2.0610,2.000401,4.117925,2.117557,4.117925
2.0620,2.000389,4.190589,2.190211,4.190589
2.0630,2.000377,4.190588,2.190211,4.190588
2.0640,2.000366,4.117946,2.117557,4.117946
2.0650,2.000354,4.000298,2.000000,4.000298
2.0660,2.000343,3.882797,1.882443,3.882797
2.0670,2.000332,3.810124,1.809789,3.810124
2.0680,2.000321,3.810129,1.809789,3.810129
2.0690,2.000311,3.882766,1.882443,3.882766
2.0700,2.000301,4.000261,2.000000,4.000261
2.0710,2.000291,4.117838,2.117557,4.117838
2.0720,2.000281,4.190496,2.190211,4.190496
2.0730,2.000272,4.190490,2.190211,4.190490
2.0740,2.000263,4.117768,2.117557,4.117768
2.0750,2.000254,4.000268,2.000000,4.000268
2.0760,2.000245,3.882694,1.882443,3.882694
2.0770,2.000236,3.809991,1.809789,3.809991
2.0780,2.000228,3.810015,1.809789,3.810015
2.0790,2.000220,3.882630,1.882443,3.882630
2.0800,2.000212,4.000199,2.000000,4.000199
2.0810,2.000204,4.117761,2.117557,4.117761
2.0820,2.000197,4.190373,2.190211,4.190373
2.0830,2.000190,4.190349,2.190211,4.190349
2.0840,2.000183,4.117749,2.117557,4.117749
2.0850,2.000176,4.000166,2.000000,4.000166
2.0860,2.000169,3.882670,1.882443,3.882670
2.0870,2.000163,3.809925,1.809789,3.809925
2.0880,2.000157,3.809930,1.809789,3.809930
2.0890,2.000151,3.882549,1.882443,3.882549
2.0900,2.000145,4.000150,2.000000,4.000150
2.0910,2.000139,4.117670,2.117557,4.117670
2.0920,2.000134,4.190339,2.190211,4.190339
2.0930,2.000128,4.190421,2.190211,4.190421
2.0940,2.000123,4.117698,2.117557,4.117698
2.0950,2.000118,4.000138,2.000000,4.000138
2.0960,2.000113,3.882515,1.882443,3.882515
2.0970,2.000109,3.809946,1.809789,3.809946
2.0980,2.000104,3.809832,1.809789,3.809832
2.0990,2.000100,3.882574,1.882443,3.882574
2.1000,2.000096,4.000096,2.000000,4.000096
2.1010,2.000092,4.117638,2.117557,4.117638
2.1020,2.000088,4.190260,2.190211,4.190260
2.1030,2.000084,4.190271,2.190211,4.190271
2.1040,2.000081,4.117640,2.117557,4.117640
2.1050,2.000077,4.000153,2.000000,4.000153
2.1060,2.000074,3.882542,1.882443,3.882542
2.1070,2.000070,3.809853,1.809789,3.809853
2.1080,2.000067,3.809877,1.809789,3.809877
2.1090,2.000064,3.882477,1.882443,3.882477
2.1100,2.000062,4.000047,2.000000,4.000047
2.1110,2.000059,4.117626,2.117557,4.117626
2.1120,2.000056,4.190256,2.190211,4.190256
2.1130,2.000054,4.190309,2.190211,4.190309
2.1140,2.000051,4.117588,2.117557,4.117588
2.1150,2.000049,4.000068,2.000000,4.000068
2.1160,2.000046,3.882525,1.882443,3.882525
2.1170,2.000044,3.809824,1.809789,3.809824
2.1180,2.000042,3.809849,1.809789,3.809849
2.1190,2.000040,3.882576,1.882443,3.882576
2.1200,2.000038,3.999996,2.000000,3.999996
2.1210,2.000036,4.117628,2.117557,4.117628
2.1220,2.000035,4.190264,2.190211,4.190264
2.1230,2.000033,4.190261,2.190211,4.190261
2.1240,2.000031,4.117549,2.117557,4.117549
2.1250,2.000030,4.000074,2.000000,4.000074
2.1260,2.000028,3.882458,1.882443,3.882458
2.1270,2.000027,3.809828,1.809789,3.809828
2.1280,2.000026,3.809815,1.809789,3.809815
2.1290,2.000024,3.882486,1.882443,3.882486
2.1300,2.000023,4.000036,2.000000,4.000036
2.1310,2.000022,4.117524,2.117557,4.117524
2.1320,2.000021,4.190281,2.190211,4.190281
2.1330,2.000020,4.190242,2.190211,4.190242
2.1340,2.000019,4.117569,2.117557,4.117569
2.1350,2.000018,4.000017,2.000000,4.000017
2.1360,2.000017,3.882352,1.882443,3.882352
2.1370,2.000016,3.809789,1.809789,3.809789
2.1380,2.000015,3.809792,1.809789,3.809792
2.1390,2.000014,3.882500,1.882443,3.882500
2.1400,2.000013,4.000050,2.000000,4.000050
2.1410,2.000013,4.117506,2.117557,4.117506
2.1420,2.000012,4.190171,2.190211,4.190171
2.1430,2.000011,4.190301,2.190211,4.190301
2.1440,2.000011,4.117492,2.117557,4.117492
2.1450,2.000010,4.000033,2.000000,4.000033
2.1460,2.000010,3.882478,1.882443,3.882478
2.1470,2.000009,3.809796,1.809789,3.809796
2.1480,2.000009,3.809770,1.809789,3.809770
2.1490,2.000008,3.882427,1.882443,3.882427
2.1500,2.000008,4.000024,2.000000,4.000024
2.1510,2.000007,4.117588,2.117557,4.117588
2.1520,2.000007,4.190211,2.190211,4.190211
2.1530,2.000006,4.190184,2.190211,4.190184
2.1540,2.000006,4.117560,2.117557,4.117560
2.1550,2.000006,3.999982,2.000000,3.999982
2.1560,2.000005,3.882383,1.882443,3.882383
2.1570,2.000005,3.809772,1.809789,3.809772
2.1580,2.000005,3.809810,1.809789,3.809810
2.1590,2.000004,3.882430,1.882443,3.882430
2.1600,2.000004,3.999962,2.000000,3.999962
2.1610,2.000004,4.117582,2.117557,4.117582
2.1620,2.000004,4.190183,2.190211,4.190183
2.1630,2.000003,4.190216,2.190211,4.190216
2.1640,2.000003,4.117565,2.117557,4.117565
2.1650,2.000003,3.999999,2.000000,3.999999
2.1660,2.000003,3.882392,1.882443,3.882392
2.1670,2.000003,3.809757,1.809789,3.809757
2.1680,2.000003,3.809778,1.809789,3.809778
2.1690,2.000002,3.882418,1.882443,3.882418
2.1700,2.000002,4.000113,2.000000,4.000113
2.1710,2.000002,4.117491,2.117557,4.117491
2.1720,2.000002,4.190216,2.190211,4.190216
2.1730,2.000002,4.190300,2.190211,4.190300
2.1740,2.000002,4.117577,2.117557,4.117577
2.1750,2.000002,3.999959,2.000000,3.999959
2.1760,2.000002,3.882400,1.882443,3.882400
2.1770,2.000001,3.809834,1.809789,3.809834
2.1780,2.000001,3.809833,1.809789,3.809833
2.1790,2.000001,3.882487,1.882443,3.882487
2.1800,2.000001,3.999968,2.000000,3.999968
2.1810,2.000001,4.117429,2.117557,4.117429
2.1820,2.000001,4.190245,2.190211,4.190245
2.1830,2.000001,4.190230,2.190211,4.190230
2.1840,2.000001,4.117574,2.117557,4.117574
2.1850,2.000001,4.000014,2.000000,4.000014
2.1860,2.000001,3.882474,1.882443,3.882474
2.1870,2.000001,3.809819,1.809789,3.809819
2.1880,2.000001,3.809785,1.809789,3.809785
2.1890,2.000001,3.882408,1.882443,3.882408
2.1900,2.000001,4.000049,2.000000,4.000049
2.1910,2.000001,4.117577,2.117557,4.117577
2.1920,2.000000,4.190149,2.190211,4.190149
2.1930,2.000000,4.190137,2.190211,4.190137
2.1940,2.000000,4.117559,2.117557,4.117559
2.1950,2.000000,3.999939,2.000000,3.999939
2.1960,2.000000,3.882412,1.882443,3.882412
2.1970,2.000000,3.809769,1.809789,3.809769
2.1980,2.000000,3.809805,1.809789,3.809805
2.1990,2.000000,3.882463,1.882443,3.882463
2.2000,2.000000,4.000037,2.000000,4.000037
2.2010,2.000000,4.117475,2.117557,4.117475
2.2020,2.000000,4.190216,2.190211,4.190216
2.2030,2.000000,4.190263,2.190211,4.190263
2.2040,2.000000,4.117583,2.117557,4.117583
2.2050,2.000000,4.000002,2.000000,4.000002
2.2060,2.000000,3.882481,1.882443,3.882481
2.2070,2.000000,3.809857,1.809789,3.809857
2.2080,2.000000,3.809821,1.809789,3.809821
2.2090,2.000000,3.882401,1.882443,3.882401
2.2100,2.000000,3.999993,2.000000,3.999993
2.2110,2.000000,4.117566,2.117557,4.117566
2.2120,2.000000,4.190231,2.190211,4.190231
2.2130,2.000000,4.190229,2.190211,4.190229
2.2140,2.000000,4.117537,2.117557,4.117537
2.2150,2.000000,3.999955,2.000000,3.999955
2.2160,2.000000,3.882496,1.882443,3.882496
2.2170,2.000000,3.809766,1.809789,3.809766
2.2180,2.000000,3.809771,1.809789,3.809771
2.2190,2.000000,3.882396,1.882443,3.882396
2.2200,2.000000,4.000034,2.000000,4.000034
2.2210,2.000000,4.117537,2.117557,4.117537
2.2220,2.000000,4.190242,2.190211,4.190242
2.2230,2.000000,4.190200,2.190211,4.190200
2.2240,2.000000,4.117570,2.117557,4.117570
2.2250,2.000000,3.999940,2.000000,3.999940
2.2260,2.000000,3.882476,1.882443,3.882476
2.2270,2.000000,3.809753,1.809789,3.809753
2.2280,2.000000,3.809829,1.809789,3.809829
2.2290,2.000000,3.882495,1.882443,3.882495
2.2300,2.000000,3.999940,2.000000,3.999940
2.2310,2.000000,4.117559,2.117557,4.117559
2.2320,2.000000,4.190213,2.190211,4.190213
2.2330,2.000000,4.190180,2.190211,4.190180
2.2340,2.000000,4.117571,2.117557,4.117571
2.2350,2.000000,3.999981,2.000000,3.999981
2.2360,2.000000,3.882468,1.882443,3.882468
2.2370,2.000000,3.809787,1.809789,3.809787
2.2380,2.000000,3.809805,1.809789,3.809805
2.2390,2.000000,3.882442,1.882443,3.882442
2.2400,2.000000,3.999951,2.000000,3.999951
2.2410,2.000000,4.117590,2.117557,4.117590
2.2420,2.000000,4.190202,2.190211,4.190202
2.2430,2.000000,4.190209,2.190211,4.190209
2.2440,2.000000,4.117523,2.117557,4.117523
2.2450,2.000000,3.999969,2.000000,3.999969
2.2460,2.000000,3.882420,1.882443,3.882420
2.2470,2.000000,3.809786,1.809789,3.809786
2.2480,2.000000,3.809792,1.809789,3.809792
2.2490,2.000000,3.882415,1.882443,3.882415
2.2500,2.000000,4.000073,2.000000,4.000073
2.2510,2.000000,4.117576,2.117557,4.117576
2.2520,2.000000,4.190273,2.190211,4.190273
2.2530,2.000000,4.190219,2.190211,4.190219
2.2540,2.000000,4.117539,2.117557,4.117539
2.2550,2.000000,4.000027,2.000000,4.000027
2.2560,2.000000,3.882495,1.882443,3.882495
2.2570,2.000000,3.809772,1.809789,3.809772
2.2580,2.000000,3.809778,1.809789,3.809778
2.2590,2.000000,3.882465,1.882443,3.882465
2.2600,2.000000,3.999982,2.000000,3.999982
2.2610,2.000000,4.117526,2.117557,4.117526
2.2620,2.000000,4.190227,2.190211,4.190227
2.2630,2.000000,4.190165,2.190211,4.190165
2.2640,2.000000,4.117517,2.117557,4.117517
2.2650,2.000000,3.999978,2.000000,3.999978
2.2660,2.000000,3.882476,1.882443,3.882476
2.2670,2.000000,3.809771,1.809789,3.809771
2.2680,2.000000,3.809803,1.809789,3.809803
2.2690,2.000000,3.882420,1.882443,3.882420
2.2700,2.000000,4.000029,2.000000,4.000029
2.2710,2.000000,4.117561,2.117557,4.117561
2.2720,2.000000,4.190177,2.190211,4.190177
2.2730,2.000000,4.190206,2.190211,4.190206
2.2740,2.000000,4.117535,2.117557,4.117535
2.2750,2.000000,3.999994,2.000000,3.999994
2.2760,2.000000,3.882409,1.882443,3.882409
2.2770,2.000000,3.809845,1.809789,3.809845
2.2780,2.000000,3.809786,1.809789,3.809786
2.2790,2.000000,3.882491,1.882443,3.882491
2.2800,2.000000,3.999945,2.000000,3.999945
2.2810,2.000000,4.117524,2.117557,4.117524
2.2820,2.000000,4.190251,2.190211,4.190251
2.2830,2.000000,4.190214,2.190211,4.190214
2.2840,2.000000,4.117583,2.117557,4.117583
2.2850,2.000000,4.000040,2.000000,4.000040
2.2860,2.000000,3.882466,1.882443,3.882466
2.2870,2.000000,3.809765,1.809789,3.809765
2.2880,2.000000,3.809786,1.809789,3.809786
2.2890,2.000000,3.882445,1.882443,3.882445
2.2900,2.000000,3.999969,2.000000,3.999969
2.2910,2.000000,4.117577,2.117557,4.117577
2.2920,2.000000,4.190250,2.190211,4.190250
2.2930,2.000000,4.190178,2.190211,4.190178
2.2940,2.000000,4.117531,2.117557,4.117531
2.2950,2.000000,4.000047,2.000000,4.000047
2.2960,2.000000,3.882499,1.882443,3.882499
2.2970,2.000000,3.809735,1.809789,3.809735
2.2980,2.000000,3.809824,1.809789,3.809824
2.2990,2.000000,3.882416,1.882443,3.882416
2.3000,2.000000,3.999992,2.000000,3.999992
2.3010,2.000000,4.117549,2.117557,4.117549
2.3020,2.000000,4.190216,2.190211,4.190216
2.3030,2.000000,4.190240,2.190211,4.190240
2.3040,2.000000,4.117517,2.117557,4.117517
2.3050,2.000000,4.000032,2.000000,4.000032
2.3060,2.000000,3.882400,1.882443,3.882400
2.3070,2.000000,3.809790,1.809789,3.809790
2.3080,2.000000,3.809806,1.809789,3.809806
2.3090,2.000000,3.882426,1.882443,3.882426
2.3100,2.000000,3.999976,2.000000,3.999976
2.3110,2.000000,4.117587,2.117557,4.117587
2.3120,2.000000,4.190267,2.190211,4.190267
2.3130,2.000000,4.190186,2.190211,4.190186
2.3140,2.000000,4.117509,2.117557,4.117509
2.3150,2.000000,4.000041,2.000000,4.000041
2.3160,2.000000,3.882473,1.882443,3.882473
2.3170,2.000000,3.809791,1.809789,3.809791
2.3180,2.000000,3.809860,1.809789,3.809860
2.3190,2.000000,3.882377,1.882443,3.882377
2.3200,2.000000,3.999998,2.000000,3.999998
2.3210,2.000000,4.117552,2.117557,4.117552
2.3220,2.000000,4.190190,2.190211,4.190190
2.3230,2.000000,4.190254,2.190211,4.190254
2.3240,2.000000,4.117528,2.117557,4.117528
2.3250,2.000000,4.000027,2.000000,4.000027
2.3260,2.000000,3.882451,1.882443,3.882451
2.3270,2.000000,3.809765,1.809789,3.809765
2.3280,2.000000,3.809826,1.809789,3.809826
2.3290,2.000000,3.882512,1.882443,3.882512
2.3300,2.000000,4.000012,2.000000,4.000012
2.3310,2.000000,4.117496,2.117557,4.117496
2.3320,2.000000,4.190194,2.190211,4.190194
2.3330,2.000000,4.190235,2.190211,4.190235
2.3340,2.000000,4.117543,2.117557,4.117543
2.3350,2.000000,3.999973,2.000000,3.999973
2.3360,2.000000,3.882483,1.882443,3.882483
2.3370,2.000000,3.809781,1.809789,3.809781
2.3380,2.000000,3.809760,1.809789,3.809760
2.3390,2.000000,3.882365,1.882443,3.882365
2.3400,2.000000,3.999986,2.000000,3.999986
2.3410,2.000000,4.117520,2.117557,4.117520
2.3420,2.000000,4.190267,2.190211,4.190267
2.3430,2.000000,4.190190,2.190211,4.190190
2.3440,2.000000,4.117551,2.117557,4.117551
2.3450,2.000000,4.000001,2.000000,4.000001
2.3460,2.000000,3.882426,1.882443,3.882426
2.3470,2.000000,3.809730,1.809789,3.809730
2.3480,2.000000,3.809759,1.809789,3.809759
2.3490,2.000000,3.882457,1.882443,3.882457
2.3500,2.000000,4.000000,2.000000,4.000000
2.3510,2.000000,4.117592,2.117557,4.117592
2.3520,2.000000,4.190285,2.190211,4.190285
2.3530,2.000000,4.190198,2.190211,4.190198
2.3540,2.000000,4.117599,2.117557,4.117599
2.3550,2.000000,4.000035,2.000000,4.000035
2.3560,2.000000,3.882466,1.882443,3.882466
2.3570,2.000000,3.809731,1.809789,3.809731
2.3580,2.000000,3.809750,1.809789,3.809750
2.3590,2.000000,3.882488,1.882443,3.882488
2.3600,2.000000,4.000013,2.000000,4.000013
2.3610,2.000000,4.117532,2.117557,4.117532
2.3620,2.000000,4.190166,2.190211,4.190166
2.3630,2.000000,4.190195,2.190211,4.190195
2.3640,2.000000,4.117507,2.117557,4.117507
2.3650,2.000000,4.000006,2.000000,4.000006
2.3660,2.000000,3.882425,1.882443,3.882425
2.3670,2.000000,3.809767,1.809789,3.809767
2.3680,2.000000,3.809790,1.809789,3.809790
2.3690,2.000000,3.882439,1.882443,3.882439
2.3700,2.000000,4.000053,2.000000,4.000053
2.3710,2.000000,4.117630,2.117557,4.117630
2.3720,2.000000,4.190176,2.190211,4.190176
2.3730,2.000000,4.190286,2.190211,4.190286
2.3740,2.000000,4.117585,2.117557,4.117585
2.3750,2.000000,3.999980,2.000000,3.999980
2.3760,2.000000,3.882464,1.882443,3.882464
2.3770,2.000000,3.809827,1.809789,3.809827
2.3780,2.000000,3.809778,1.809789,3.809778
2.3790,2.000000,3.882419,1.882443,3.882419
2.3800,2.000000,3.999968,2.000000,3.999968
2.3810,2.000000,4.117508,2.117557,4.117508
2.3820,2.000000,4.190244,2.190211,4.190244
2.3830,2.000000,4.190190,2.190211,4.190190
2.3840,2.000000,4.117534,2.117557,4.117534
2.3850,2.000000,3.999995,2.000000,3.999995
2.3860,2.000000,3.882454,1.882443,3.882454
2.3870,2.000000,3.809835,1.809789,3.809835
2.3880,2.000000,3.809790,1.809789,3.809790
2.3890,2.000000,3.882472,1.882443,3.882472
2.3900,2.000000,4.000042,2.000000,4.000042
2.3910,2.000000,4.117565,2.117557,4.117565
2.3920,2.000000,4.190265,2.190211,4.190265
2.3930,2.000000,4.190202,2.190211,4.190202
2.3940,2.000000,4.117575,2.117557,4.117575
2.3950,2.000000,3.999913,2.000000,3.999913
2.3960,2.000000,3.882390,1.882443,3.882390
2.3970,2.000000,3.809746,1.809789,3.809746
2.3980,2.000000,3.809822,1.809789,3.809822
2.3990,2.000000,3.882466,1.882443,3.882466
2.4000,2.000000,4.000035,2.000000,4.000035
2.4010,2.000000,4.117570,2.117557,4.117570
2.4020,2.000000,4.190238,2.190211,4.190238
2.4030,2.000000,4.190180,2.190211,4.190180
2.4040,2.000000,4.117576,2.117557,4.117576
2.4050,2.000000,3.999958,2.000000,3.999958
2.4060,2.000000,3.882473,1.882443,3.882473
2.4070,2.000000,3.809775,1.809789,3.809775
2.4080,2.000373,3.810159,1.809789,3.810159
2.4090,2.000394,3.882863,1.882443,3.882863
2.4100,2.000416,4.000408,2.000000,4.000408
2.4110,2.000440,4.118022,2.117557,4.118022
2.4120,2.000464,4.190682,2.190211,4.190682
2.4130,2.000489,4.190680,2.190211,4.190680
2.4140,2.000515,4.118040,2.117557,4.118040
2.4150,2.000543,4.000532,2.000000,4.000532
2.4160,2.000572,3.883023,1.882443,3.883023
2.4170,2.000601,3.810383,1.809789,3.810383
2.4180,2.000632,3.810450,1.809789,3.810450
2.4190,2.000665,3.883137,1.882443,3.883137
2.4200,2.000698,4.000681,2.000000,4.000681
2.4210,2.000733,4.118295,2.117557,4.118295
2.4220,2.000769,4.190948,2.190211,4.190948
2.4230,2.000806,4.191005,2.190211,4.191005
2.4240,2.000845,4.118379,2.117557,4.118379
2.4250,2.000885,4.000939,2.000000,4.000939
2.4260,2.000927,3.883328,1.882443,3.883328
2.4270,2.000970,3.810786,1.809789,3.810786
2.4280,2.001014,3.810827,1.809789,3.810827
2.4290,2.001060,3.883510,1.882443,3.883510
2.4300,2.001107,4.001113,2.000000,4.001113
2.4310,2.001156,4.118698,2.117557,4.118698
2.4320,2.001206,4.191380,2.190211,4.191380
2.4330,2.001258,4.191481,2.190211,4.191481
2.4340,2.001311,4.118902,2.117557,4.118902
2.4350,2.001365,4.001356,2.000000,4.001356
2.4360,2.001422,3.883872,1.882443,3.883872
2.4370,2.001479,3.811233,1.809789,3.811233
2.4380,2.001538,3.811232,1.809789,3.811232
2.4390,2.001599,3.884049,1.882443,3.884049
2.4400,2.001661,4.001665,2.000000,4.001665
2.4410,2.001724,4.119359,2.117557,4.119359
2.4420,2.001789,4.192016,2.190211,4.192016
2.4430,2.001855,4.192061,2.190211,4.192061
2.4440,2.001923,4.119526,2.117557,4.119526
2.4450,2.001992,4.001957,2.000000,4.001957
2.4460,2.002063,3.884510,1.882443,3.884510
2.4470,2.002134,3.811909,1.809789,3.811909
2.4480,2.002207,3.811934,1.809789,3.811934
2.4490,2.002281,3.884741,1.882443,3.884741
2.4500,2.002357,4.002366,2.000000,4.002366
2.4510,2.002433,4.119955,2.117557,4.119955
2.4520,2.002511,4.192697,2.190211,4.192697
2.4530,2.002590,4.192818,2.190211,4.192818
2.4540,2.002669,4.120268,2.117557,4.120268
2.4550,2.002750,4.002761,2.000000,4.002761
2.4560,2.002831,3.885296,1.882443,3.885296
2.4570,2.002913,3.812684,1.809789,3.812684
2.4580,2.002996,3.812753,1.809789,3.812753
2.4590,2.003080,3.885526,1.882443,3.885526
2.4600,2.003164,4.003180,2.000000,4.003180
2.4610,2.003248,4.120822,2.117557,4.120822
2.4620,2.003333,4.193603,2.190211,4.193603
2.4630,2.003419,4.193599,2.190211,4.193599
2.4640,2.003504,4.121060,2.117557,4.121060
2.4650,2.003590,4.003618,2.000000,4.003618
2.4660,2.003676,3.886062,1.882443,3.886062
2.4670,2.003761,3.813482,1.809789,3.813482
2.4680,2.003847,3.813612,1.809789,3.813612
2.4690,2.003932,3.886466,1.882443,3.886466
2.4700,2.004017,4.003943,2.000000,4.003943
2.4710,2.004102,4.121684,2.117557,4.121684
2.4720,2.004186,4.194399,2.190211,4.194399
2.4730,2.004269,4.194506,2.190211,4.194506
2.4740,2.004352,4.121858,2.117557,4.121858
2.4750,2.004434,4.004492,2.000000,4.004492
2.4760,2.004515,3.886999,1.882443,3.886999
2.4770,2.004594,3.814437,1.809789,3.814437
2.4780,2.004673,3.814493,1.809789,3.814493
2.4790,2.004750,3.887250,1.882443,3.887250
2.4800,2.004826,4.004836,2.000000,4.004836
2.4810,2.004900,4.122449,2.117557,4.122449
2.4820,2.004973,4.195152,2.190211,4.195152
2.4830,2.005044,4.195290,2.190211,4.195290
2.4840,2.005113,4.122645,2.117557,4.122645
2.4850,2.005180,4.005234,2.000000,4.005234
2.4860,2.005245,3.887684,1.882443,3.887684
2.4870,2.005308,3.815049,1.809789,3.815049
2.4880,2.005369,3.815092,1.809789,3.815092
2.4890,2.005427,3.887876,1.882443,3.887876
2.4900,2.005484,4.005472,2.000000,4.005472
2.4910,2.005537,4.123137,2.117557,4.123137
2.4920,2.005588,4.195849,2.190211,4.195849
2.4930,2.005636,4.195865,2.190211,4.195865
2.4940,2.005682,4.123287,2.117557,4.123287
2.4950,2.005725,4.005739,2.000000,4.005739
2.4960,2.005765,3.888201,1.882443,3.888201
2.4970,2.005802,3.815602,1.809789,3.815602
2.4980,2.005836,3.815670,1.809789,3.815670
2.4990,2.005866,3.888319,1.882443,3.888319
2.5000,2.005894,4.005928,2.000000,4.005928
2.5010,2.005919,4.123461,2.117557,4.123461
2.5020,2.005940,4.196145,2.190211,4.196145
2.5030,2.005958,4.196134,2.190211,4.196134
2.5040,2.005973,4.123517,2.117557,4.123517
2.5050,2.005985,4.005940,2.000000,4.005940
2.5060,2.005993,3.888451,1.882443,3.888451
2.5070,2.005998,3.815757,1.809789,3.815757
2.5080,2.006000,3.815802,1.809789,3.815802
2.5090,2.005998,3.888403,1.882443,3.888403
2.5100,2.005993,4.006025,2.000000,4.006025
2.5110,2.005985,4.123513,2.117557,4.123513
2.5120,2.005973,4.196238,2.190211,4.196238
2.5130,2.005959,4.196182,2.190211,4.196182
2.5140,2.005940,4.123454,2.117557,4.123454
2.5150,2.005919,4.005919,2.000000,4.005919
2.5160,2.005894,3.888333,1.882443,3.888333
2.5170,2.005867,3.815680,1.809789,3.815680
2.5180,2.005836,3.815634,1.809789,3.815634
2.5190,2.005802,3.888235,1.882443,3.888235
2.5200,2.005765,4.005730,2.000000,4.005730
2.5210,2.005725,4.123221,2.117557,4.123221
2.5220,2.005682,4.195885,2.190211,4.195885
2.5230,2.005637,4.195859,2.190211,4.195859
2.5240,2.005588,4.123115,2.117557,4.123115
2.5250,2.005537,4.005532,2.000000,4.005532
2.5260,2.005484,3.887971,1.882443,3.887971
2.5270,2.005428,3.815264,1.809789,3.815264
2.5280,2.005369,3.815073,1.809789,3.815073
2.5290,2.005309,3.887802,1.882443,3.887802
2.5300,2.005246,4.005292,2.000000,4.005292
2.5310,2.005181,4.122682,2.117557,4.122682
2.5320,2.005113,4.195380,2.190211,4.195380
2.5330,2.005044,4.195266,2.190211,4.195266
2.5340,2.004973,4.122517,2.117557,4.122517
2.5350,2.004901,4.004905,2.000000,4.004905
2.5360,2.004827,3.887312,1.882443,3.887312
2.5370,2.004751,3.814563,1.809789,3.814563
2.5380,2.004674,3.814387,1.809789,3.814387
2.5390,2.004595,3.887085,1.882443,3.887085
2.5400,2.004516,4.004542,2.000000,4.004542
2.5410,2.004435,4.122051,2.117557,4.122051
2.5420,2.004353,4.194503,2.190211,4.194503
2.5430,2.004271,4.194473,2.190211,4.194473
2.5440,2.004187,4.121746,2.117557,4.121746
2.5450,2.004103,4.004115,2.000000,4.004115
2.5460,2.004019,3.886484,1.882443,3.886484
2.5470,2.003934,3.813754,1.809789,3.813754
2.5480,2.003849,3.813647,1.809789,3.813647
2.5490,2.003763,3.886221,1.882443,3.886221
2.5500,2.003678,4.003662,2.000000,4.003662
2.5510,2.003592,4.121121,2.117557,4.121121
2.5520,2.003507,4.193698,2.190211,4.193698
2.5530,2.003421,4.193635,2.190211,4.193635
2.5540,2.003336,4.120941,2.117557,4.120941
2.5550,2.003251,4.003278,2.000000,4.003278
2.5560,2.003167,3.885648,1.882443,3.885648
2.5570,2.003083,3.812934,1.809789,3.812934
2.5580,2.003000,3.812835,1.809789,3.812835
2.5590,2.002917,3.885362,1.882443,3.885362
2.5600,2.002835,4.002844,2.000000,4.002844
2.5610,2.002754,4.120316,2.117557,4.120316
2.5620,2.002674,4.192868,2.190211,4.192868
2.5630,2.002594,4.192845,2.190211,4.192845
2.5640,2.002516,4.120053,2.117557,4.120053
2.5650,2.002439,4.002413,2.000000,4.002413
2.5660,2.002362,3.884818,1.882443,3.884818
2.5670,2.002287,3.812008,1.809789,3.812008
2.5680,2.002214,3.811979,1.809789,3.811979
2.5690,2.002141,3.884530,1.882443,3.884530
2.5700,2.002070,4.002065,2.000000,4.002065
2.5710,2.002000,4.119637,2.117557,4.119637
2.5720,2.001931,4.192126,2.190211,4.192126
2.5730,2.001864,4.192038,2.190211,4.192038
2.5740,2.001798,4.119398,2.117557,4.119398
2.5750,2.001734,4.001769,2.000000,4.001769
2.5760,2.001671,3.884108,1.882443,3.884108
2.5770,2.001610,3.811378,1.809789,3.811378
2.5780,2.001550,3.811276,1.809789,3.811276
2.5790,2.001491,3.883883,1.882443,3.883883
2.5800,2.001434,4.001363,2.000000,4.001363
2.5810,2.001379,4.118941,2.117557,4.118941
2.5820,2.001325,4.191505,2.190211,4.191505
2.5830,2.001273,4.191491,2.190211,4.191491
2.5840,2.001222,4.118791,2.117557,4.118791
2.5850,2.001173,4.001158,2.000000,4.001158
2.5860,2.001125,3.883663,1.882443,3.883663
2.5870,2.001079,3.810894,1.809789,3.810894
2.5880,2.001034,3.810797,1.809789,3.810797
2.5890,2.000990,3.883372,1.882443,3.883372
2.5900,2.000949,4.000942,2.000000,4.000942
2.5910,2.000908,4.118474,2.117557,4.118474
2.5920,2.000869,4.191092,2.190211,4.191092
2.5930,2.000832,4.191072,2.190211,4.191072
2.5940,2.000796,4.118340,2.117557,4.118340
2.5950,2.000761,4.000766,2.000000,4.000766
2.5960,2.000728,3.883240,1.882443,3.883240
2.5970,2.000696,3.810512,1.809789,3.810512
2.5980,2.000665,3.810459,1.809789,3.810459
2.5990,2.000636,3.883072,1.882443,3.883072
2.6000,2.000608,4.000658,2.000000,4.000658
2.6010,2.000581,4.118159,2.117557,4.118159
2.6020,2.000556,4.190811,2.190211,4.190811
2.6030,2.000531,4.190736,2.190211,4.190736
2.6040,2.000508,4.118079,2.117557,4.118079
2.6050,2.000486,4.000518,2.000000,4.000518
2.6060,2.000465,3.882933,1.882443,3.882933
2.6070,2.000445,3.810205,1.809789,3.810205
2.6080,2.000427,3.810237,1.809789,3.810237
2.6090,2.000409,3.882837,1.882443,3.882837
2.6100,2.000392,4.000357,2.000000,4.000357
2.6110,2.000376,4.117919,2.117557,4.117919
2.6120,2.000362,4.190621,2.190211,4.190621
2.6130,2.000348,4.190508,2.190211,4.190508
2.6140,2.000335,4.117868,2.117557,4.117868
2.6150,2.000323,4.000356,2.000000,4.000356
2.6160,2.000312,3.882736,1.882443,3.882736
2.6170,2.000302,3.810006,1.809789,3.810006
2.6180,2.000292,3.810120,1.809789,3.810120
2.6190,2.000284,3.882761,1.882443,3.882761
2.6200,2.000276,4.000263,2.000000,4.000263
2.6210,2.000269,4.117778,2.117557,4.117778
2.6220,2.000262,4.190434,2.190211,4.190434
2.6230,2.000257,4.190396,2.190211,4.190396
2.6240,2.000252,4.117758,2.117557,4.117758
2.6250,2.000247,4.000201,2.000000,4.000201
2.6260,2.000244,3.882666,1.882443,3.882666
2.6270,2.000241,3.810023,1.809789,3.810023
2.6280,2.000238,3.810029,1.809789,3.810029
2.6290,2.000236,3.882730,1.882443,3.882730
2.6300,2.000235,4.000221,2.000000,4.000221
2.6310,2.000235,4.117826,2.117557,4.117826
2.6320,2.000234,4.190479,2.190211,4.190479
2.6330,2.000235,4.190438,2.190211,4.190438
2.6340,2.000236,4.117845,2.117557,4.117845
2.6350,2.000237,4.000243,2.000000,4.000243
2.6360,2.000239,3.882623,1.882443,3.882623
2.6370,2.000242,3.810042,1.809789,3.810042
2.6380,2.000245,3.810032,1.809789,3.810032
2.6390,2.000248,3.882684,1.882443,3.882684
2.6400,2.000252,4.000227,2.000000,4.000227
2.6410,2.000256,4.117841,2.117557,4.117841
2.6420,2.000261,4.190413,2.190211,4.190413
2.6430,2.000266,4.190458,2.190211,4.190458
2.6440,2.000271,4.117834,2.117557,4.117834
2.6450,2.000277,4.000291,2.000000,4.000291
2.6460,2.000284,3.882779,1.882443,3.882779
2.6470,2.000291,3.810099,1.809789,3.810099
2.6480,2.000298,3.810093,1.809789,3.810093
2.6490,2.000305,3.882781,1.882443,3.882781
2.6500,2.000313,4.000211,2.000000,4.000211
2.6510,2.000321,4.117860,2.117557,4.117860
2.6520,2.000330,4.190538,2.190211,4.190538
2.6530,2.000339,4.190597,2.190211,4.190597
2.6540,2.000348,4.117845,2.117557,4.117845
2.6550,2.000358,4.000364,2.000000,4.000364
2.6560,2.000368,3.882876,1.882443,3.882876
2.6570,2.000378,3.810144,1.809789,3.810144
2.6580,2.000389,3.810192,1.809789,3.810192
2.6590,2.000400,3.882859,1.882443,3.882859
2.6600,2.000411,4.000388,2.000000,4.000388
2.6610,2.000423,4.117946,2.117557,4.117946
2.6620,2.000435,4.190690,2.190211,4.190690
2.6630,2.000447,4.190654,2.190211,4.190654
2.6640,2.000460,4.117974,2.117557,4.117974
2.6650,2.000472,4.000533,2.000000,4.000533
2.6660,2.000485,3.882909,1.882443,3.882909
2.6670,2.000499,3.810303,1.809789,3.810303
2.6680,2.000513,3.810284,1.809789,3.810284
2.6690,2.000527,3.882987,1.882443,3.882987
2.6700,2.000541,4.000551,2.000000,4.000551
2.6710,2.000555,4.118114,2.117557,4.118114
2.6720,2.000570,4.190732,2.190211,4.190732
2.6730,2.000585,4.190850,2.190211,4.190850
2.6740,2.000601,4.118142,2.117557,4.118142
2.6750,2.000616,4.000604,2.000000,4.000604
2.6760,2.000632,3.883047,1.882443,3.883047
2.6770,2.000648,3.810414,1.809789,3.810414
2.6780,2.000664,3.810476,1.809789,3.810476
2.6790,2.000681,3.883098,1.882443,3.883098
2.6800,2.000697,4.000687,2.000000,4.000687
2.6810,2.000714,4.118179,2.117557,4.118179
2.6820,2.000731,4.190967,2.190211,4.190967
2.6830,2.000749,4.190987,2.190211,4.190987
2.6840,2.000766,4.118387,2.117557,4.118387
2.6850,2.000784,4.000837,2.000000,4.000837
2.6860,2.000802,3.883220,1.882443,3.883220
2.6870,2.000820,3.810639,1.809789,3.810639
2.6880,2.000838,3.810602,1.809789,3.810602
2.6890,2.000856,3.883262,1.882443,3.883262
2.6900,2.000875,4.000896,2.000000,4.000896
2.6910,2.000893,4.118454,2.117557,4.118454
2.6920,2.000912,4.191119,2.190211,4.191119
2.6930,2.000931,4.191144,2.190211,4.191144
2.6940,2.000950,4.118506,2.117557,4.118506
2.6950,2.000968,4.000866,2.000000,4.000866
2.6960,2.000988,3.883409,1.882443,3.883409
2.6970,2.001007,3.810830,1.809789,3.810830
2.6980,2.001026,3.810844,1.809789,3.810844
2.6990,2.001045,3.883460,1.882443,3.883460
2.7000,2.001064,4.001059,2.000000,4.001059
2.7010,2.001084,4.118596,2.117557,4.118596
2.7020,2.001103,4.191314,2.190211,4.191314
2.7030,2.001122,4.191277,2.190211,4.191277
2.7040,2.001141,4.118740,2.117557,4.118740
2.7050,2.001161,4.001108,2.000000,4.001108
2.7060,2.001180,3.883630,1.882443,3.883630
2.7070,2.001199,3.810976,1.809789,3.810976
2.7080,2.001218,3.811008,1.809789,3.811008
2.7090,2.001237,3.883713,1.882443,3.883713
2.7100,2.001256,4.001257,2.000000,4.001257
2.7110,2.001275,4.118855,2.117557,4.118855
2.7120,2.001293,4.191535,2.190211,4.191535
2.7130,2.001312,4.191527,2.190211,4.191527
2.7140,2.001330,4.118880,2.117557,4.118880
2.7150,2.001348,4.001387,2.000000,4.001387
2.7160,2.001366,3.883781,1.882443,3.883781
2.7170,2.001384,3.811081,1.809789,3.811081
2.7180,2.001402,3.811132,1.809789,3.811132
2.7190,2.001419,3.883887,1.882443,3.883887
2.7200,2.001436,4.001418,2.000000,4.001418
2.7210,2.001453,4.119001,2.117557,4.119001
2.7220,2.001470,4.191701,2.190211,4.191701
2.7230,2.001486,4.191704,2.190211,4.191704
2.7240,2.001503,4.119062,2.117557,4.119062
2.7250,2.001518,4.001490,2.000000,4.001490
2.7260,2.001534,3.883993,1.882443,3.883993
2.7270,2.001549,3.811306,1.809789,3.811306
2.7280,2.001564,3.811321,1.809789,3.811321
2.7290,2.001578,3.884030,1.882443,3.884030
2.7300,2.001592,4.001529,2.000000,4.001529
2.7310,2.001606,4.119203,2.117557,4.119203
2.7320,2.001620,4.191843,2.190211,4.191843
2.7330,2.001633,4.191838,2.190211,4.191838
2.7340,2.001645,4.119253,2.117557,4.119253
2.7350,2.001657,4.001701,2.000000,4.001701
2.7360,2.001669,3.884199,1.882443,3.884199
2.7370,2.001680,3.811449,1.809789,3.811449
2.7380,2.001691,3.811469,1.809789,3.811469
2.7390,2.001701,3.884127,1.882443,3.884127
2.7400,2.001711,4.001704,2.000000,4.001704
2.7410,2.001720,4.119305,2.117557,4.119305
2.7420,2.001729,4.191891,2.190211,4.191891
2.7430,2.001738,4.191992,2.190211,4.191992
2.7440,2.001746,4.119337,2.117557,4.119337
2.7450,2.001753,4.001707,2.000000,4.001707
2.7460,2.001760,3.884133,1.882443,3.884133
2.7470,2.001766,3.811572,1.809789,3.811572
2.7480,2.001772,3.811527,1.809789,3.811527
2.7490,2.001777,3.884225,1.882443,3.884225
2.7500,2.001782,4.001776,2.000000,4.001776
2.7510,2.001786,4.119349,2.117557,4.119349
2.7520,2.001790,4.192021,2.190211,4.192021
2.7530,2.001793,4.191984,2.190211,4.191984
2.7540,2.001795,4.119372,2.117557,4.119372
2.7550,2.001797,4.001790,2.000000,4.001790
2.7560,2.001799,3.884248,1.882443,3.884248
2.7570,2.001800,3.811605,1.809789,3.811605
2.7580,2.001800,3.811644,1.809789,3.811644
2.7590,2.001800,3.884277,1.882443,3.884277
2.7600,2.001799,4.001808,2.000000,4.001808
2.7610,2.001797,4.119324,2.117557,4.119324
2.7620,2.001795,4.192029,2.190211,4.192029
2.7630,2.001793,4.191989,2.190211,4.191989
2.7640,2.001790,4.119376,2.117557,4.119376
2.7650,2.001786,4.001757,2.000000,4.001757
2.7660,2.001782,3.884213,1.882443,3.884213
2.7670,2.001777,3.811617,1.809789,3.811617
2.7680,2.001772,3.811615,1.809789,3.811615
2.7690,2.001766,3.884154,1.882443,3.884154
2.7700,2.001760,4.001787,2.000000,4.001787
2.7710,2.001753,4.119296,2.117557,4.119296
2.7720,2.001746,4.191923,2.190211,4.191923
2.7730,2.001738,4.191898,2.190211,4.191898
2.7740,2.001729,4.119337,2.117557,4.119337
2.7750,2.001720,4.001740,2.000000,4.001740
2.7760,2.001711,3.884105,1.882443,3.884105
2.7770,2.001701,3.811509,1.809789,3.811509
2.7780,2.001691,3.811462,1.809789,3.811462
2.7790,2.001680,3.884099,1.882443,3.884099
2.7800,2.001669,4.001623,2.000000,4.001623
2.7810,2.001657,4.119265,2.117557,4.119265
2.7820,2.001645,4.191810,2.190211,4.191810
2.7830,2.001633,4.191833,2.190211,4.191833
2.7840,2.001620,4.119171,2.117557,4.119171
2.7850,2.001606,4.001597,2.000000,4.001597
2.7860,2.001592,3.884097,1.882443,3.884097
2.7870,2.001578,3.811399,1.809789,3.811399
2.7880,2.001564,3.811302,1.809789,3.811302
