time_s,ppg_clean_ua,ppg_with_ambient_ua,ambient_ua,photodiode_total_ua
0.0000,1.000311,1.500285,0.500000,1.500285
0.0010,1.000329,1.529693,0.529389,1.529693
0.0020,1.000347,1.547892,0.547553,1.547892
0.0030,1.000366,1.547918,0.547553,1.547918
0.0040,1.000387,1.529791,0.529389,1.529791
0.0050,1.000408,1.500400,0.500000,1.500400
0.0060,1.000430,1.471042,0.470611,1.471042
0.0070,1.000452,1.452925,0.452447,1.452925
0.0080,1.000476,1.452902,0.452447,1.452902
0.0090,1.000501,1.471092,0.470611,1.471092
0.0100,1.000527,1.500551,0.500000,1.500551
0.0110,1.000554,1.529951,0.529389,1.529951
0.0120,1.000582,1.548111,0.547553,1.548111
0.0130,1.000611,1.548187,0.547553,1.548187
0.0140,1.000641,1.530044,0.529389,1.530044
0.0150,1.000672,1.500669,0.500000,1.500669
0.0160,1.000704,1.471332,0.470611,1.471332
0.0170,1.000738,1.453183,0.452447,1.453183
0.0180,1.000772,1.453201,0.452447,1.453201
0.0190,1.000808,1.471403,0.470611,1.471403
0.0200,1.000845,1.500827,0.500000,1.500827
0.0210,1.000883,1.530281,0.529389,1.530281
0.0220,1.000923,1.548464,0.547553,1.548464
0.0230,1.000963,1.548505,0.547553,1.548505
0.0240,1.001005,1.530414,0.529389,1.530414
0.0250,1.001048,1.501042,0.500000,1.501042
0.0260,1.001092,1.471662,0.470611,1.471662
0.0270,1.001138,1.453575,0.452447,1.453575
0.0280,1.001185,1.453630,0.452447,1.453630
0.0290,1.001233,1.471829,0.470611,1.471829
0.0300,1.001282,1.501264,0.500000,1.501264
0.0310,1.001332,1.530745,0.529389,1.530745
0.0320,1.001384,1.548909,0.547553,1.548909
0.0330,1.001437,1.548987,0.547553,1.548987
0.0340,1.001491,1.530878,0.529389,1.530878
0.0350,1.001546,1.501515,0.500000,1.501515
0.0360,1.001603,1.472207,0.470611,1.472207
0.0370,1.001660,1.454089,0.452447,1.454089
0.0380,1.001719,1.454210,0.452447,1.454210
0.0390,1.001779,1.472420,0.470611,1.472420
0.0400,1.001839,1.501833,0.500000,1.501833
0.0410,1.001901,1.531319,0.529389,1.531319
0.0420,1.001964,1.549506,0.547553,1.549506
0.0430,1.002028,1.549591,0.547553,1.549591
0.0440,1.002092,1.531474,0.529389,1.531474
0.0450,1.002158,1.502153,0.500000,1.502153
0.0460,1.002224,1.472815,0.470611,1.472815
0.0470,1.002291,1.454750,0.452447,1.454750
0.0480,1.002359,1.454833,0.452447,1.454833
0.0490,1.002428,1.473034,0.470611,1.473034
0.0500,1.002497,1.502494,0.500000,1.502494
0.0510,1.002566,1.531991,0.529389,1.531991
0.0520,1.002636,1.550177,0.547553,1.550177
0.0530,1.002707,1.550279,0.547553,1.550279
0.0540,1.002778,1.532219,0.529389,1.532219
0.0550,1.002849,1.502826,0.500000,1.502826
0.0560,1.002920,1.473576,0.470611,1.473576
0.0570,1.002992,1.455447,0.452447,1.455447
0.0580,1.003063,1.455504,0.452447,1.455504
0.0590,1.003135,1.473759,0.470611,1.473759
0.0600,1.003206,1.503211,0.500000,1.503211
0.0610,1.003277,1.532665,0.529389,1.532665
0.0620,1.003348,1.550903,0.547553,1.550903
0.0630,1.003418,1.550976,0.547553,1.550976
0.0640,1.003488,1.532864,0.529389,1.532864
0.0650,1.003558,1.503569,0.500000,1.503569
0.0660,1.003627,1.474257,0.470611,1.474257
0.0670,1.003695,1.456118,0.452447,1.456118
0.0680,1.003762,1.456269,0.452447,1.456269
0.0690,1.003829,1.474462,0.470611,1.474462
0.0700,1.003894,1.503885,0.500000,1.503885
0.0710,1.003958,1.533335,0.529389,1.533335
0.0720,1.004021,1.551608,0.547553,1.551608
0.0730,1.004083,1.551658,0.547553,1.551658
0.0740,1.004144,1.533536,0.529389,1.533536
0.0750,1.004203,1.504229,0.500000,1.504229
0.0760,1.004261,1.474879,0.470611,1.474879
0.0770,1.004317,1.456778,0.452447,1.456778
0.0780,1.004371,1.456822,0.452447,1.456822
0.0790,1.004423,1.474988,0.470611,1.474988
0.0800,1.004474,1.504425,0.500000,1.504425
0.0810,1.004523,1.533939,0.529389,1.533939
0.0820,1.004570,1.552131,0.547553,1.552131
0.0830,1.004614,1.552187,0.547553,1.552187
0.0840,1.004657,1.534085,0.529389,1.534085
0.0850,1.004697,1.504703,0.500000,1.504703
0.0860,1.004735,1.475387,0.470611,1.475387
0.0870,1.004771,1.457214,0.452447,1.457214
0.0880,1.004804,1.457224,0.452447,1.457224
0.0890,1.004835,1.475457,0.470611,1.475457
0.0900,1.004863,1.504861,0.500000,1.504861
0.0910,1.004889,1.534293,0.529389,1.534293
0.0920,1.004912,1.552471,0.547553,1.552471
0.0930,1.004932,1.552523,0.547553,1.552523
0.0940,1.004950,1.534324,0.529389,1.534324
0.0950,1.004965,1.504965,0.500000,1.504965
0.0960,1.004978,1.475605,0.470611,1.475605
0.0970,1.004987,1.457441,0.452447,1.457441
0.0980,1.004994,1.457425,0.452447,1.457425
0.0990,1.004999,1.475615,0.470611,1.475615
0.1000,1.005000,1.505023,0.500000,1.505023
0.1010,1.004999,1.534413,0.529389,1.534413
0.1020,1.004994,1.552563,0.547553,1.552563
0.1030,1.004988,1.552520,0.547553,1.552520
0.1040,1.004978,1.534352,0.529389,1.534352
0.1050,1.004965,1.504989,0.500000,1.504989
0.1060,1.004950,1.475585,0.470611,1.475585
0.1070,1.004932,1.457338,0.452447,1.457338
0.1080,1.004912,1.457316,0.452447,1.457316
0.1090,1.004889,1.475493,0.470611,1.475493
0.1100,1.004863,1.504894,0.500000,1.504894
0.1110,1.004835,1.534251,0.529389,1.534251
0.1120,1.004804,1.552327,0.547553,1.552327
0.1130,1.004771,1.552344,0.547553,1.552344
0.1140,1.004735,1.534105,0.529389,1.534105
0.1150,1.004697,1.504730,0.500000,1.504730
0.1160,1.004657,1.475255,0.470611,1.475255
0.1170,1.004615,1.457063,0.452447,1.457063
0.1180,1.004570,1.456999,0.452447,1.456999
0.1190,1.004523,1.475136,0.470611,1.475136
0.1200,1.004475,1.504479,0.500000,1.504479
0.1210,1.004424,1.533791,0.529389,1.533791
0.1220,1.004371,1.551936,0.547553,1.551936
0.1230,1.004317,1.551877,0.547553,1.551877
0.1240,1.004261,1.533642,0.529389,1.533642
0.1250,1.004204,1.504223,0.500000,1.504223
0.1260,1.004145,1.474746,0.470611,1.474746
0.1270,1.004084,1.456526,0.452447,1.456526
0.1280,1.004022,1.456458,0.452447,1.456458
0.1290,1.003959,1.474570,0.470611,1.474570
0.1300,1.003895,1.503887,0.500000,1.503887
0.1310,1.003829,1.533220,0.529389,1.533220
0.1320,1.003763,1.551335,0.547553,1.551335
0.1330,1.003696,1.551274,0.547553,1.551274
0.1340,1.003628,1.533005,0.529389,1.533005
0.1350,1.003559,1.503557,0.500000,1.503557
0.1360,1.003489,1.474120,0.470611,1.474120
0.1370,1.003420,1.455862,0.452447,1.455862
0.1380,1.003349,1.455784,0.452447,1.455784
0.1390,1.003278,1.473899,0.470611,1.473899
0.1400,1.003207,1.503184,0.500000,1.503184
0.1410,1.003136,1.532578,0.529389,1.532578
0.1420,1.003065,1.550616,0.547553,1.550616
0.1430,1.002993,1.550547,0.547553,1.550547
0.1440,1.002922,1.532256,0.529389,1.532256
0.1450,1.002851,1.502829,0.500000,1.502829
0.1460,1.002780,1.473369,0.470611,1.473369
0.1470,1.002709,1.455143,0.452447,1.455143
0.1480,1.002639,1.455066,0.452447,1.455066
0.1490,1.002569,1.473171,0.470611,1.473171
0.1500,1.002500,1.502489,0.500000,1.502489
0.1510,1.002431,1.531819,0.529389,1.531819
0.1520,1.002362,1.549960,0.547553,1.549960
0.1530,1.002295,1.549855,0.547553,1.549855
0.1540,1.002228,1.531599,0.529389,1.531599
0.1550,1.002162,1.502171,0.500000,1.502171
0.1560,1.002097,1.472714,0.470611,1.472714
0.1570,1.002032,1.454491,0.452447,1.454491
0.1580,1.001969,1.454418,0.452447,1.454418
0.1590,1.001906,1.472541,0.470611,1.472541
0.1600,1.001845,1.501864,0.500000,1.501864
0.1610,1.001784,1.531161,0.529389,1.531161
0.1620,1.001725,1.549302,0.547553,1.549302
0.1630,1.001667,1.549274,0.547553,1.549274
0.1640,1.001609,1.530973,0.529389,1.530973
0.1650,1.001553,1.501546,0.500000,1.501546
0.1660,1.001499,1.472141,0.470611,1.472141
0.1670,1.001445,1.453900,0.452447,1.453900
0.1680,1.001392,1.453823,0.452447,1.453823
0.1690,1.001341,1.471955,0.470611,1.471955
0.1700,1.001291,1.501259,0.500000,1.501259
0.1710,1.001243,1.530624,0.529389,1.530624
0.1720,1.001195,1.548772,0.547553,1.548772
0.1730,1.001149,1.548701,0.547553,1.548701
0.1740,1.001104,1.530502,0.529389,1.530502
0.1750,1.001061,1.501023,0.500000,1.501023
0.1760,1.001018,1.471639,0.470611,1.471639
0.1770,1.000977,1.453414,0.452447,1.453414
0.1780,1.000937,1.453391,0.452447,1.453391
0.1790,1.000899,1.471515,0.470611,1.471515
0.1800,1.000861,1.500824,0.500000,1.500824
0.1810,1.000825,1.530223,0.529389,1.530223
0.1820,1.000791,1.548367,0.547553,1.548367
0.1830,1.000757,1.548326,0.547553,1.548326
0.1840,1.000725,1.530159,0.529389,1.530159
0.1850,1.000693,1.500731,0.500000,1.500731
0.1860,1.000663,1.471277,0.470611,1.471277
0.1870,1.000634,1.453092,0.452447,1.453092
0.1880,1.000607,1.453073,0.452447,1.453073
0.1890,1.000580,1.471217,0.470611,1.471217
0.1900,1.000554,1.500541,0.500000,1.500541
0.1910,1.000530,1.529912,0.529389,1.529912
0.1920,1.000507,1.548044,0.547553,1.548044
0.1930,1.000484,1.548016,0.547553,1.548016
0.1940,1.000463,1.529849,0.529389,1.529849
0.1950,1.000443,1.500445,0.500000,1.500445
0.1960,1.000423,1.471059,0.470611,1.471059
0.1970,1.000405,1.452847,0.452447,1.452847
0.1980,1.000388,1.452862,0.452447,1.452862
0.1990,1.000371,1.470974,0.470611,1.470974
0.2000,1.000355,1.500381,0.500000,1.500381
0.2010,1.000341,1.529743,0.529389,1.529743
0.2020,1.000327,1.547839,0.547553,1.547839
0.2030,1.000314,1.547866,0.547553,1.547866
0.2040,1.000301,1.529707,0.529389,1.529707
0.2050,1.000290,1.500297,0.500000,1.500297
0.2060,1.000279,1.470873,0.470611,1.470873
0.2070,1.000269,1.452688,0.452447,1.452688
0.2080,1.000260,1.452670,0.452447,1.452670
0.2090,1.000252,1.470855,0.470611,1.470855
0.2100,1.000244,1.500222,0.500000,1.500222
0.2110,1.000236,1.529615,0.529389,1.529615
0.2120,1.000230,1.547784,0.547553,1.547784
0.2130,1.000224,1.547758,0.547553,1.547758
0.2140,1.000219,1.529645,0.529389,1.529645
0.2150,1.000214,1.500156,0.500000,1.500156
0.2160,1.000210,1.470819,0.470611,1.470819
0.2170,1.000206,1.452623,0.452447,1.452623
0.2180,1.000203,1.452658,0.452447,1.452658
0.2190,1.000201,1.470811,0.470611,1.470811
0.2200,1.000199,1.500196,0.500000,1.500196
0.2210,1.000197,1.529606,0.529389,1.529606
0.2220,1.000196,1.547743,0.547553,1.547743
0.2230,1.000195,1.547746,0.547553,1.547746
0.2240,1.000195,1.529591,0.529389,1.529591
0.2250,1.000196,1.500190,0.500000,1.500190
0.2260,1.000197,1.470767,0.470611,1.470767
0.2270,1.000198,1.452621,0.452447,1.452621
0.2280,1.000199,1.452684,0.452447,1.452684
0.2290,1.000201,1.470813,0.470611,1.470813
0.2300,1.000204,1.500188,0.500000,1.500188
0.2310,1.000207,1.529546,0.529389,1.529546
0.2320,1.000210,1.547796,0.547553,1.547796
0.2330,1.000213,1.547757,0.547553,1.547757
0.2340,1.000217,1.529572,0.529389,1.529572
0.2350,1.000222,1.500247,0.500000,1.500247
0.2360,1.000226,1.470823,0.470611,1.470823
0.2370,1.000231,1.452651,0.452447,1.452651
0.2380,1.000236,1.452678,0.452447,1.452678
0.2390,1.000242,1.470871,0.470611,1.470871
0.2400,1.000248,1.500227,0.500000,1.500227
0.2410,1.000254,1.529647,0.529389,1.529647
0.2420,1.000261,1.547794,0.547553,1.547794
0.2430,1.000268,1.547813,0.547553,1.547813
0.2440,1.000275,1.529640,0.529389,1.529640
0.2450,1.000282,1.500304,0.500000,1.500304
0.2460,1.000290,1.470930,0.470611,1.470930
0.2470,1.000298,1.452752,0.452447,1.452752
0.2480,1.000307,1.452726,0.452447,1.452726
0.2490,1.000315,1.470941,0.470611,1.470941
0.2500,1.000324,1.500313,0.500000,1.500313
0.2510,1.000333,1.529701,0.529389,1.529701
0.2520,1.000343,1.547892,0.547553,1.547892
0.2530,1.000352,1.547900,0.547553,1.547900
0.2540,1.000362,1.529744,0.529389,1.529744
0.2550,1.000372,1.500324,0.500000,1.500324
0.2560,1.000383,1.470958,0.470611,1.470958
0.2570,1.000394,1.452806,0.452447,1.452806
0.2580,1.000405,1.452873,0.452447,1.452873
0.2590,1.000416,1.471072,0.470611,1.471072
0.2600,1.000427,1.500420,0.500000,1.500420
0.2610,1.000439,1.529838,0.529389,1.529838
0.2620,1.000451,1.547995,0.547553,1.547995
0.2630,1.000463,1.548027,0.547553,1.548027
0.2640,1.000475,1.529869,0.529389,1.529869
0.2650,1.000488,1.500490,0.500000,1.500490
0.2660,1.000500,1.471121,0.470611,1.471121
0.2670,1.000513,1.452951,0.452447,1.452951
0.2680,1.000527,1.452983,0.452447,1.452983
0.2690,1.000540,1.471186,0.470611,1.471186
0.2700,1.000553,1.500545,0.500000,1.500545
0.2710,1.000567,1.529958,0.529389,1.529958
0.2720,1.000581,1.548161,0.547553,1.548161
0.2730,1.000595,1.548173,0.547553,1.548173
0.2740,1.000609,1.529966,0.529389,1.529966
0.2750,1.000624,1.500641,0.500000,1.500641
0.2760,1.000638,1.471253,0.470611,1.471253
0.2770,1.000653,1.453081,0.452447,1.453081
0.2780,1.000668,1.453100,0.452447,1.453100
0.2790,1.000683,1.471307,0.470611,1.471307
0.2800,1.000698,1.500696,0.500000,1.500696
0.2810,1.000713,1.530100,0.529389,1.530100
0.2820,1.000729,1.548344,0.547553,1.548344
0.2830,1.000744,1.548293,0.547553,1.548293
0.2840,1.000760,1.530171,0.529389,1.530171
0.2850,1.000776,1.500753,0.500000,1.500753
0.2860,1.000791,1.471417,0.470611,1.471417
0.2870,1.000807,1.453254,0.452447,1.453254
0.2880,1.000823,1.453298,0.452447,1.453298
0.2890,1.000839,1.471426,0.470611,1.471426
0.2900,1.000855,1.500806,0.500000,1.500806
0.2910,1.000871,1.530260,0.529389,1.530260
0.2920,1.000887,1.548429,0.547553,1.548429
0.2930,1.000903,1.548451,0.547553,1.548451
0.2940,1.000919,1.530270,0.529389,1.530270
0.2950,1.000935,1.500945,0.500000,1.500945
0.2960,1.000951,1.471535,0.470611,1.471535
0.2970,1.000967,1.453393,0.452447,1.453393
0.2980,1.000983,1.453413,0.452447,1.453413
0.2990,1.000999,1.471603,0.470611,1.471603
0.3000,1.001015,1.500997,0.500000,1.500997
0.3010,1.001031,1.530429,0.529389,1.530429
0.3020,1.001047,1.548603,0.547553,1.548603
0.3030,1.001062,1.548643,0.547553,1.548643
0.3040,1.001078,1.530487,0.529389,1.530487
0.3050,1.001093,1.501104,0.500000,1.501104
0.3060,1.001108,1.471769,0.470611,1.471769
0.3070,1.001124,1.453554,0.452447,1.453554
0.3080,1.001139,1.453618,0.452447,1.453618
0.3090,1.001154,1.471736,0.470611,1.471736
0.3100,1.001168,1.501159,0.500000,1.501159
0.3110,1.001183,1.530623,0.529389,1.530623
0.3120,1.001197,1.548739,0.547553,1.548739
0.3130,1.001211,1.548731,0.547553,1.548731
0.3140,1.001225,1.530609,0.529389,1.530609
0.3150,1.001239,1.501233,0.500000,1.501233
0.3160,1.001252,1.471866,0.470611,1.471866
0.3170,1.001265,1.453721,0.452447,1.453721
0.3180,1.001278,1.453723,0.452447,1.453723
0.3190,1.001291,1.471906,0.470611,1.471906
0.3200,1.001303,1.501275,0.500000,1.501275
0.3210,1.001315,1.530699,0.529389,1.530699
0.3220,1.001327,1.548865,0.547553,1.548865
0.3230,1.001338,1.548885,0.547553,1.548885
0.3240,1.001350,1.530760,0.529389,1.530760
0.3250,1.001360,1.501396,0.500000,1.501396
0.3260,1.001371,1.471995,0.470611,1.471995
0.3270,1.001381,1.453861,0.452447,1.453861
0.3280,1.001391,1.453825,0.452447,1.453825
0.3290,1.001400,1.472013,0.470611,1.472013
0.3300,1.001409,1.501435,0.500000,1.501435
0.3310,1.001418,1.530820,0.529389,1.530820
0.3320,1.001426,1.548971,0.547553,1.548971
0.3330,1.001434,1.549018,0.547553,1.549018
0.3340,1.001441,1.530856,0.529389,1.530856
0.3350,1.001448,1.501440,0.500000,1.501440
0.3360,1.001455,1.472081,0.470611,1.472081
0.3370,1.001461,1.453916,0.452447,1.453916
0.3380,1.001467,1.453914,0.452447,1.453914
0.3390,1.001472,1.472109,0.470611,1.472109
0.3400,1.001477,1.501477,0.500000,1.501477
0.3410,1.001481,1.530875,0.529389,1.530875
0.3420,1.001485,1.548976,0.547553,1.548976
0.3430,1.001489,1.549083,0.547553,1.549083
0.3440,1.001492,1.530897,0.529389,1.530897
0.3450,1.001494,1.501542,0.500000,1.501542
0.3460,1.001496,1.472138,0.470611,1.472138
0.3470,1.001498,1.453936,0.452447,1.453936
0.3480,1.001499,1.453940,0.452447,1.453940
0.3490,1.001500,1.472085,0.470611,1.472085
0.3500,1.001500,1.501510,0.500000,1.501510
0.3510,1.001500,1.530898,0.529389,1.530898
0.3520,1.001499,1.549045,0.547553,1.549045
0.3530,1.001498,1.549073,0.547553,1.549073
0.3540,1.001496,1.530876,0.529389,1.530876
0.3550,1.001494,1.501493,0.500000,1.501493
0.3560,1.001492,1.472063,0.470611,1.472063
0.3570,1.001489,1.453884,0.452447,1.453884
0.3580,1.001485,1.453895,0.452447,1.453895
0.3590,1.001481,1.472080,0.470611,1.472080
0.3600,1.001477,1.501487,0.500000,1.501487
0.3610,1.001472,1.530850,0.529389,1.530850
0.3620,1.001467,1.549035,0.547553,1.549035
0.3630,1.001461,1.548986,0.547553,1.548986
0.3640,1.001455,1.530859,0.529389,1.530859
0.3650,1.001448,1.501450,0.500000,1.501450
0.3660,1.001441,1.472079,0.470611,1.472079
0.3670,1.001434,1.453867,0.452447,1.453867
0.3680,1.001426,1.453864,0.452447,1.453864
0.3690,1.001418,1.472059,0.470611,1.472059
0.3700,1.001409,1.501413,0.500000,1.501413
0.3710,1.001400,1.530773,0.529389,1.530773
0.3720,1.001391,1.548943,0.547553,1.548943
0.3730,1.001381,1.548897,0.547553,1.548897
0.3740,1.001371,1.530744,0.529389,1.530744
0.3750,1.001360,1.501365,0.500000,1.501365
0.3760,1.001350,1.471992,0.470611,1.471992
0.3770,1.001338,1.453757,0.452447,1.453757
0.3780,1.001327,1.453812,0.452447,1.453812
0.3790,1.001315,1.471899,0.470611,1.471899
0.3800,1.001303,1.501323,0.500000,1.501323
0.3810,1.001291,1.530699,0.529389,1.530699
0.3820,1.001278,1.548816,0.547553,1.548816
0.3830,1.001265,1.548851,0.547553,1.548851
0.3840,1.001252,1.530668,0.529389,1.530668
0.3850,1.001239,1.501218,0.500000,1.501218
0.3860,1.001225,1.471800,0.470611,1.471800
0.3870,1.001211,1.453663,0.452447,1.453663
0.3880,1.001197,1.453663,0.452447,1.453663
0.3890,1.001183,1.471790,0.470611,1.471790
0.3900,1.001168,1.501192,0.500000,1.501192
0.3910,1.001153,1.530574,0.529389,1.530574
0.3920,1.001139,1.548681,0.547553,1.548681
0.3930,1.001124,1.548615,0.547553,1.548615
0.3940,1.001108,1.530528,0.529389,1.530528
0.3950,1.001093,1.501050,0.500000,1.501050
0.3960,1.001078,1.471671,0.470611,1.471671
0.3970,1.001062,1.453490,0.452447,1.453490
0.3980,1.001046,1.453490,0.452447,1.453490
0.3990,1.001031,1.471624,0.470611,1.471624
0.4000,1.001015,1.501041,0.500000,1.501041
0.4010,1.000999,1.530389,0.529389,1.530389
0.4020,1.000983,1.548584,0.547553,1.548584
0.4030,1.000967,1.548510,0.547553,1.548510
0.4040,1.000951,1.530314,0.529389,1.530314
0.4050,1.000935,1.500945,0.500000,1.500945
0.4060,1.000919,1.471559,0.470611,1.471559
0.4070,1.000903,1.453332,0.452447,1.453332
0.4080,1.000887,1.453364,0.452447,1.453364
0.4090,1.000871,1.471462,0.470611,1.471462
0.4100,1.000855,1.500855,0.500000,1.500855
0.4110,1.000839,1.530237,0.529389,1.530237
0.4120,1.000823,1.548375,0.547553,1.548375
0.4130,1.000807,1.548370,0.547553,1.548370
0.4140,1.000791,1.530181,0.529389,1.530181
0.4150,1.000775,1.500774,0.500000,1.500774
0.4160,1.000759,1.471371,0.470611,1.471371
0.4170,1.000744,1.453174,0.452447,1.453174
0.4180,1.000728,1.453181,0.452447,1.453181
0.4190,1.000713,1.471308,0.470611,1.471308
0.4200,1.000698,1.500720,0.500000,1.500720
0.4210,1.000682,1.530090,0.529389,1.530090
0.4220,1.000667,1.548207,0.547553,1.548207
0.4230,1.000652,1.548227,0.547553,1.548227
0.4240,1.000638,1.529993,0.529389,1.529993
0.4250,1.000623,1.500593,0.500000,1.500593
0.4260,1.000608,1.471249,0.470611,1.471249
0.4270,1.000594,1.453064,0.452447,1.453064
0.4280,1.000580,1.453039,0.452447,1.453039
0.4290,1.000566,1.471176,0.470611,1.471176
0.4300,1.000552,1.500539,0.500000,1.500539
0.4310,1.000538,1.529912,0.529389,1.529912
0.4320,1.000525,1.548093,0.547553,1.548093
0.4330,1.000511,1.548034,0.547553,1.548034
0.4340,1.000498,1.529866,0.529389,1.529866
0.4350,1.000485,1.500494,0.500000,1.500494
0.4360,1.000472,1.471061,0.470611,1.471061
0.4370,1.000460,1.452916,0.452447,1.452916
0.4380,1.000447,1.452860,0.452447,1.452860
0.4390,1.000435,1.471069,0.470611,1.471069
0.4400,1.000423,1.500399,0.500000,1.500399
0.4410,1.000411,1.529808,0.529389,1.529808
0.4420,1.000400,1.547940,0.547553,1.547940
0.4430,1.000388,1.547958,0.547553,1.547958
0.4440,1.000377,1.529704,0.529389,1.529704
0.4450,1.000366,1.500351,0.500000,1.500351
0.4460,1.000355,1.470955,0.470611,1.470955
0.4470,1.000345,1.452799,0.452447,1.452799
0.4480,1.000334,1.452782,0.452447,1.452782
0.4490,1.000324,1.470950,0.470611,1.470950
0.4500,1.000314,1.500320,0.500000,1.500320
0.4510,1.000305,1.529728,0.529389,1.529728
0.4520,1.000295,1.547875,0.547553,1.547875
0.4530,1.000286,1.547849,0.547553,1.547849
0.4540,1.000277,1.529679,0.529389,1.529679
0.4550,1.000268,1.500255,0.500000,1.500255
0.4560,1.000259,1.470899,0.470611,1.470899
0.4570,1.000251,1.452647,0.452447,1.452647
0.4580,1.000242,1.452690,0.452447,1.452690
0.4590,1.000234,1.470842,0.470611,1.470842
0.4600,1.000226,1.500251,0.500000,1.500251
0.4610,1.000219,1.529652,0.529389,1.529652
0.4620,1.000211,1.547748,0.547553,1.547748
0.4630,1.000204,1.547722,0.547553,1.547722
0.4640,1.000197,1.529646,0.529389,1.529646
0.4650,1.000190,1.500198,0.500000,1.500198
0.4660,1.000183,1.470802,0.470611,1.470802
0.4670,1.000177,1.452654,0.452447,1.452654
0.4680,1.000170,1.452616,0.452447,1.452616
0.4690,1.000164,1.470785,0.470611,1.470785
0.4700,1.000158,1.500145,0.500000,1.500145
0.4710,1.000152,1.529522,0.529389,1.529522
0.4720,1.000147,1.547692,0.547553,1.547692
0.4730,1.000141,1.547698,0.547553,1.547698
0.4740,1.000136,1.529516,0.529389,1.529516
0.4750,1.000131,1.500092,0.500000,1.500092
0.4760,1.000126,1.470752,0.470611,1.470752
0.4770,1.000121,1.452552,0.452447,1.452552
0.4780,1.000116,1.452559,0.452447,1.452559
0.4790,1.000111,1.470727,0.470611,1.470727
0.4800,1.000107,1.500115,0.500000,1.500115
0.4810,1.000103,1.529499,0.529389,1.529499
0.4820,1.000099,1.547649,0.547553,1.547649
0.4830,1.000095,1.547551,0.547553,1.547551
0.4840,1.000091,1.529499,0.529389,1.529499
0.4850,1.000087,1.500044,0.500000,1.500044
0.4860,1.000083,1.470734,0.470611,1.470734
0.4870,1.000080,1.452520,0.452447,1.452520
0.4880,1.000077,1.452561,0.452447,1.452561
0.4890,1.000073,1.470677,0.470611,1.470677
0.4900,1.000070,1.500052,0.500000,1.500052
0.4910,1.000067,1.529472,0.529389,1.529472
0.4920,1.000064,1.547643,0.547553,1.547643
0.4930,1.000061,1.547614,0.547553,1.547614
0.4940,1.000059,1.529446,0.529389,1.529446
0.4950,1.000056,1.500062,0.500000,1.500062
0.4960,1.000054,1.470651,0.470611,1.470651
0.4970,1.000051,1.452488,0.452447,1.452488
0.4980,1.000049,1.452499,0.452447,1.452499
0.4990,1.000047,1.470670,0.470611,1.470670
0.5000,1.000045,1.500024,0.500000,1.500024
0.5010,1.000043,1.529444,0.529389,1.529444
0.5020,1.000041,1.547581,0.547553,1.547581
0.5030,1.000039,1.547549,0.547553,1.547549
0.5040,1.000037,1.529402,0.529389,1.529402
0.5050,1.000035,1.500010,0.500000,1.500010
0.5060,1.000033,1.470638,0.470611,1.470638
0.5070,1.000032,1.452470,0.452447,1.452470
0.5080,1.000030,1.452411,0.452447,1.452411
0.5090,1.000029,1.470659,0.470611,1.470659
0.5100,1.000027,1.500027,0.500000,1.500027
0.5110,1.000026,1.529444,0.529389,1.529444
0.5120,1.000025,1.547617,0.547553,1.547617
0.5130,1.000024,1.547561,0.547553,1.547561
0.5140,1.000022,1.529426,0.529389,1.529426
0.5150,1.000021,1.500052,0.500000,1.500052
0.5160,1.000020,1.470620,0.470611,1.470620
0.5170,1.000019,1.452503,0.452447,1.452503
0.5180,1.000018,1.452463,0.452447,1.452463
0.5190,1.000017,1.470632,0.470611,1.470632
0.5200,1.000016,1.500084,0.500000,1.500084
0.5210,1.000016,1.529367,0.529389,1.529367
0.5220,1.000015,1.547556,0.547553,1.547556
0.5230,1.000014,1.547555,0.547553,1.547555
0.5240,1.000013,1.529419,0.529389,1.529419
0.5250,1.000013,1.499994,0.500000,1.499994
0.5260,1.000012,1.470612,0.470611,1.470612
0.5270,1.000011,1.452462,0.452447,1.452462
0.5280,1.000011,1.452454,0.452447,1.452454
0.5290,1.000010,1.470603,0.470611,1.470603
0.5300,1.000009,1.500017,0.500000,1.500017
0.5310,1.000009,1.529363,0.529389,1.529363
0.5320,1.000008,1.547577,0.547553,1.547577
0.5330,1.000008,1.547595,0.547553,1.547595
0.5340,1.000008,1.529405,0.529389,1.529405
0.5350,1.000007,1.500042,0.500000,1.500042
0.5360,1.000007,1.470613,0.470611,1.470613
0.5370,1.000006,1.452475,0.452447,1.452475
0.5380,1.000006,1.452429,0.452447,1.452429
0.5390,1.000006,1.470655,0.470611,1.470655
0.5400,1.000005,1.500011,0.500000,1.500011
0.5410,1.000005,1.529398,0.529389,1.529398
0.5420,1.000005,1.547583,0.547553,1.547583
0.5430,1.000004,1.547557,0.547553,1.547557
0.5440,1.000004,1.529410,0.529389,1.529410
0.5450,1.000004,1.500034,0.500000,1.500034
0.5460,1.000004,1.470606,0.470611,1.470606
0.5470,1.000003,1.452468,0.452447,1.452468
0.5480,1.000003,1.452435,0.452447,1.452435
0.5490,1.000003,1.470584,0.470611,1.470584
0.5500,1.000003,1.500007,0.500000,1.500007
0.5510,1.000003,1.529416,0.529389,1.529416
0.5520,1.000003,1.547530,0.547553,1.547530
0.5530,1.000002,1.547554,0.547553,1.547554
0.5540,1.000002,1.529393,0.529389,1.529393
0.5550,1.000002,1.500000,0.500000,1.500000
0.5560,1.000002,1.470603,0.470611,1.470603
0.5570,1.000002,1.452455,0.452447,1.452455
0.5580,1.000002,1.452447,0.452447,1.452447
0.5590,1.000002,1.470673,0.470611,1.470673
0.5600,1.000002,1.499980,0.500000,1.499980
0.5610,1.000001,1.529357,0.529389,1.529357
0.5620,1.000001,1.547560,0.547553,1.547560
0.5630,1.000001,1.547537,0.547553,1.547537
0.5640,1.000001,1.529404,0.529389,1.529404
0.5650,1.000001,1.500015,0.500000,1.500015
0.5660,1.000001,1.470619,0.470611,1.470619
0.5670,1.000001,1.452457,0.452447,1.452457
0.5680,1.000001,1.452422,0.452447,1.452422
0.5690,1.000001,1.470594,0.470611,1.470594
0.5700,1.000001,1.500017,0.500000,1.500017
0.5710,1.000001,1.529363,0.529389,1.529363
0.5720,1.000001,1.547541,0.547553,1.547541
0.5730,1.000001,1.547542,0.547553,1.547542
0.5740,1.000001,1.529375,0.529389,1.529375
0.5750,1.000001,1.500002,0.500000,1.500002
0.5760,1.000001,1.470631,0.470611,1.470631
0.5770,1.000000,1.452432,0.452447,1.452432
0.5780,1.000000,1.452439,0.452447,1.452439
0.5790,1.000000,1.470607,0.470611,1.470607
0.5800,1.000000,1.499967,0.500000,1.499967
0.5810,1.000000,1.529368,0.529389,1.529368
0.5820,1.000000,1.547584,0.547553,1.547584
0.5830,1.000000,1.547550,0.547553,1.547550
0.5840,1.000000,1.529388,0.529389,1.529388
0.5850,1.000000,1.500006,0.500000,1.500006
0.5860,1.000000,1.470619,0.470611,1.470619
0.5870,1.000000,1.452474,0.452447,1.452474
0.5880,1.000000,1.452462,0.452447,1.452462
0.5890,1.000000,1.470602,0.470611,1.470602
0.5900,1.000000,1.500051,0.500000,1.500051
0.5910,1.000000,1.529405,0.529389,1.529405
0.5920,1.000000,1.547554,0.547553,1.547554
0.5930,1.000000,1.547529,0.547553,1.547529
0.5940,1.000000,1.529450,0.529389,1.529450
0.5950,1.000000,1.499949,0.500000,1.499949
0.5960,1.000000,1.470607,0.470611,1.470607
0.5970,1.000000,1.452480,0.452447,1.452480
0.5980,1.000000,1.452450,0.452447,1.452450
0.5990,1.000000,1.470606,0.470611,1.470606
0.6000,1.000000,1.500006,0.500000,1.500006
0.6010,1.000000,1.529415,0.529389,1.529415
0.6020,1.000000,1.547592,0.547553,1.547592
0.6030,1.000000,1.547538,0.547553,1.547538
0.6040,1.000000,1.529402,0.529389,1.529402
0.6050,1.000000,1.500015,0.500000,1.500015
0.6060,1.000000,1.470590,0.470611,1.470590
0.6070,1.000000,1.452461,0.452447,1.452461
0.6080,1.000000,1.452475,0.452447,1.452475
0.6090,1.000000,1.470629,0.470611,1.470629
0.6100,1.000000,1.500012,0.500000,1.500012
0.6110,1.000000,1.529389,0.529389,1.529389
0.6120,1.000000,1.547528,0.547553,1.547528
0.6130,1.000000,1.547570,0.547553,1.547570
0.6140,1.000000,1.529395,0.529389,1.529395
0.6150,1.000000,1.500018,0.500000,1.500018
0.6160,1.000000,1.470595,0.470611,1.470595
0.6170,1.000000,1.452453,0.452447,1.452453
0.6180,1.000000,1.452448,0.452447,1.452448
0.6190,1.000000,1.470616,0.470611,1.470616
0.6200,1.000000,1.500034,0.500000,1.500034
0.6210,1.000000,1.529400,0.529389,1.529400
0.6220,1.000000,1.547562,0.547553,1.547562
0.6230,1.000000,1.547554,0.547553,1.547554
0.6240,1.000000,1.529411,0.529389,1.529411
0.6250,1.000000,1.500033,0.500000,1.500033
0.6260,1.000000,1.470587,0.470611,1.470587
0.6270,1.000000,1.452468,0.452447,1.452468
0.6280,1.000000,1.452454,0.452447,1.452454
0.6290,1.000000,1.470625,0.470611,1.470625
0.6300,1.000000,1.500033,0.500000,1.500033
0.6310,1.000000,1.529423,0.529389,1.529423
0.6320,1.000000,1.547565,0.547553,1.547565
0.6330,1.000000,1.547569,0.547553,1.547569
0.6340,1.000000,1.529370,0.529389,1.529370
0.6350,1.000000,1.500005,0.500000,1.500005
0.6360,1.000000,1.470633,0.470611,1.470633
0.6370,1.000000,1.452480,0.452447,1.452480
0.6380,1.000000,1.452460,0.452447,1.452460
0.6390,1.000000,1.470622,0.470611,1.470622
0.6400,1.000000,1.500005,0.500000,1.500005
0.6410,1.000000,1.529355,0.529389,1.529355
0.6420,1.000000,1.547561,0.547553,1.547561
0.6430,1.000000,1.547570,0.547553,1.547570
0.6440,1.000000,1.529405,0.529389,1.529405
0.6450,1.000000,1.499992,0.500000,1.499992
0.6460,1.000000,1.470634,0.470611,1.470634
0.6470,1.000000,1.452440,0.452447,1.452440
0.6480,1.000000,1.452469,0.452447,1.452469
0.6490,1.000000,1.470611,0.470611,1.470611
0.6500,1.000000,1.499958,0.500000,1.499958
0.6510,1.000000,1.529405,0.529389,1.529405
0.6520,1.000000,1.547559,0.547553,1.547559
0.6530,1.000000,1.547534,0.547553,1.547534
0.6540,1.000000,1.529384,0.529389,1.529384
0.6550,1.000000,1.500011,0.500000,1.500011
0.6560,1.000000,1.470586,0.470611,1.470586
0.6570,1.000000,1.452451,0.452447,1.452451
0.6580,1.000000,1.452448,0.452447,1.452448
0.6590,1.000000,1.470592,0.470611,1.470592
0.6600,1.000000,1.500013,0.500000,1.500013
0.6610,1.000000,1.529375,0.529389,1.529375
0.6620,1.000000,1.547576,0.547553,1.547576
0.6630,1.000000,1.547567,0.547553,1.547567
0.6640,1.000000,1.529372,0.529389,1.529372
0.6650,1.000000,1.499957,0.500000,1.499957
0.6660,1.000000,1.470627,0.470611,1.470627
0.6670,1.000000,1.452464,0.452447,1.452464
0.6680,1.000000,1.452450,0.452447,1.452450
0.6690,1.000000,1.470629,0.470611,1.470629
0.6700,1.000000,1.499996,0.500000,1.499996
0.6710,1.000000,1.529372,0.529389,1.529372
0.6720,1.000000,1.547576,0.547553,1.547576
0.6730,1.000000,1.547528,0.547553,1.547528
0.6740,1.000000,1.529380,0.529389,1.529380
0.6750,1.000000,1.499990,0.500000,1.499990
0.6760,1.000000,1.470611,0.470611,1.470611
0.6770,1.000000,1.452498,0.452447,1.452498
0.6780,1.000000,1.452447,0.452447,1.452447
0.6790,1.000000,1.470624,0.470611,1.470624
0.6800,1.000000,1.499996,0.500000,1.499996
0.6810,1.000000,1.529386,0.529389,1.529386
0.6820,1.000000,1.547517,0.547553,1.547517
0.6830,1.000000,1.547556,0.547553,1.547556
0.6840,1.000000,1.529412,0.529389,1.529412
0.6850,1.000000,1.500022,0.500000,1.500022
0.6860,1.000000,1.470614,0.470611,1.470614
0.6870,1.000000,1.452426,0.452447,1.452426
0.6880,1.000000,1.452471,0.452447,1.452471
0.6890,1.000000,1.470638,0.470611,1.470638
0.6900,1.000000,1.499972,0.500000,1.499972
0.6910,1.000000,1.529406,0.529389,1.529406
0.6920,1.000000,1.547563,0.547553,1.547563
0.6930,1.000000,1.547579,0.547553,1.547579
0.6940,1.000000,1.529419,0.529389,1.529419
0.6950,1.000000,1.500042,0.500000,1.500042
0.6960,1.000000,1.470643,0.470611,1.470643
0.6970,1.000000,1.452462,0.452447,1.452462
0.6980,1.000000,1.452398,0.452447,1.452398
0.6990,1.000000,1.470604,0.470611,1.470604
0.7000,1.000000,1.499986,0.500000,1.499986
0.7010,1.000000,1.529401,0.529389,1.529401
0.7020,1.000000,1.547497,0.547553,1.547497
0.7030,1.000000,1.547571,0.547553,1.547571
0.7040,1.000000,1.529399,0.529389,1.529399
0.7050,1.000000,1.499989,0.500000,1.499989
0.7060,1.000000,1.470623,0.470611,1.470623
0.7070,1.000000,1.452459,0.452447,1.452459
0.7080,1.000000,1.452446,0.452447,1.452446
0.7090,1.000000,1.470656,0.470611,1.470656
0.7100,1.000000,1.500000,0.500000,1.500000
0.7110,1.000000,1.529385,0.529389,1.529385
0.7120,1.000000,1.547520,0.547553,1.547520
0.7130,1.000000,1.547573,0.547553,1.547573
0.7140,1.000000,1.529368,0.529389,1.529368
0.7150,1.000000,1.499997,0.500000,1.499997
0.7160,1.000000,1.470613,0.470611,1.470613
0.7170,1.000000,1.452473,0.452447,1.452473
0.7180,1.000000,1.452480,0.452447,1.452480
0.7190,1.000000,1.470612,0.470611,1.470612
0.7200,1.000000,1.500012,0.500000,1.500012
0.7210,1.000000,1.529403,0.529389,1.529403
0.7220,1.000000,1.547579,0.547553,1.547579
0.7230,1.000000,1.547531,0.547553,1.547531
0.7240,1.000000,1.529384,0.529389,1.529384
0.7250,1.000000,1.499981,0.500000,1.499981
0.7260,1.000000,1.470595,0.470611,1.470595
0.7270,1.000000,1.452450,0.452447,1.452450
0.7280,1.000000,1.452422,0.452447,1.452422
0.7290,1.000000,1.470611,0.470611,1.470611
0.7300,1.000000,1.499997,0.500000,1.499997
0.7310,1.000000,1.529352,0.529389,1.529352
0.7320,1.000000,1.547507,0.547553,1.547507
0.7330,1.000000,1.547545,0.547553,1.547545
0.7340,1.000000,1.529388,0.529389,1.529388
0.7350,1.000000,1.499988,0.500000,1.499988
0.7360,1.000000,1.470617,0.470611,1.470617
0.7370,1.000000,1.452439,0.452447,1.452439
0.7380,1.000000,1.452440,0.452447,1.452440
0.7390,1.000000,1.470678,0.470611,1.470678
0.7400,1.000000,1.500014,0.500000,1.500014
0.7410,1.000000,1.529369,0.529389,1.529369
0.7420,1.000000,1.547542,0.547553,1.547542
0.7430,1.000000,1.547590,0.547553,1.547590
0.7440,1.000000,1.529410,0.529389,1.529410
0.7450,1.000000,1.499972,0.500000,1.499972
0.7460,1.000000,1.470606,0.470611,1.470606
0.7470,1.000000,1.452466,0.452447,1.452466
0.7480,1.000000,1.452460,0.452447,1.452460
0.7490,1.000000,1.470599,0.470611,1.470599
0.7500,1.000311,1.500337,0.500000,1.500337
0.7510,1.000329,1.529702,0.529389,1.529702
0.7520,1.000347,1.547914,0.547553,1.547914
0.7530,1.000366,1.547900,0.547553,1.547900
0.7540,1.000387,1.529764,0.529389,1.529764
0.7550,1.000408,1.500418,0.500000,1.500418
0.7560,1.000430,1.471044,0.470611,1.471044
0.7570,1.000452,1.452911,0.452447,1.452911
0.7580,1.000476,1.452931,0.452447,1.452931
0.7590,1.000501,1.471135,0.470611,1.471135
0.7600,1.000527,1.500560,0.500000,1.500560
0.7610,1.000554,1.529969,0.529389,1.529969
0.7620,1.000582,1.548125,0.547553,1.548125
0.7630,1.000611,1.548161,0.547553,1.548161
0.7640,1.000641,1.530032,0.529389,1.530032
0.7650,1.000672,1.500648,0.500000,1.500648
0.7660,1.000704,1.471298,0.470611,1.471298
0.7670,1.000738,1.453217,0.452447,1.453217
0.7680,1.000772,1.453241,0.452447,1.453241
0.7690,1.000808,1.471380,0.470611,1.471380
0.7700,1.000845,1.500846,0.500000,1.500846
0.7710,1.000883,1.530269,0.529389,1.530269
0.7720,1.000923,1.548460,0.547553,1.548460
0.7730,1.000963,1.548551,0.547553,1.548551
0.7740,1.001005,1.530347,0.529389,1.530347
0.7750,1.001048,1.501056,0.500000,1.501056
0.7760,1.001092,1.471691,0.470611,1.471691
0.7770,1.001138,1.453543,0.452447,1.453543
0.7780,1.001185,1.453640,0.452447,1.453640
0.7790,1.001233,1.471830,0.470611,1.471830
0.7800,1.001282,1.501300,0.500000,1.501300
0.7810,1.001332,1.530717,0.529389,1.530717
0.7820,1.001384,1.548995,0.547553,1.548995
0.7830,1.001437,1.549035,0.547553,1.549035
0.7840,1.001491,1.530878,0.529389,1.530878
0.7850,1.001546,1.501560,0.500000,1.501560
0.7860,1.001603,1.472205,0.470611,1.472205
0.7870,1.001660,1.454140,0.452447,1.454140
0.7880,1.001719,1.454147,0.452447,1.454147
0.7890,1.001779,1.472431,0.470611,1.472431
0.7900,1.001839,1.501872,0.500000,1.501872
0.7910,1.001901,1.531249,0.529389,1.531249
0.7920,1.001964,1.549513,0.547553,1.549513
0.7930,1.002028,1.549545,0.547553,1.549545
0.7940,1.002092,1.531501,0.529389,1.531501
0.7950,1.002158,1.502184,0.500000,1.502184
0.7960,1.002224,1.472834,0.470611,1.472834
0.7970,1.002291,1.454713,0.452447,1.454713
0.7980,1.002359,1.454816,0.452447,1.454816
0.7990,1.002428,1.473016,0.470611,1.473016
0.8000,1.002497,1.502478,0.500000,1.502478
0.8010,1.002566,1.531962,0.529389,1.531962
0.8020,1.002636,1.550183,0.547553,1.550183
0.8030,1.002707,1.550252,0.547553,1.550252
0.8040,1.002778,1.532142,0.529389,1.532142
0.8050,1.002849,1.502848,0.500000,1.502848
0.8060,1.002920,1.473554,0.470611,1.473554
0.8070,1.002992,1.455436,0.452447,1.455436
0.8080,1.003063,1.455498,0.452447,1.455498
0.8090,1.003135,1.473751,0.470611,1.473751
0.8100,1.003206,1.503209,0.500000,1.503209
0.8110,1.003277,1.532675,0.529389,1.532675
0.8120,1.003348,1.550907,0.547553,1.550907
0.8130,1.003418,1.550987,0.547553,1.550987
0.8140,1.003488,1.532843,0.529389,1.532843
0.8150,1.003558,1.503501,0.500000,1.503501
0.8160,1.003627,1.474277,0.470611,1.474277
0.8170,1.003695,1.456199,0.452447,1.456199
0.8180,1.003762,1.456193,0.452447,1.456193
0.8190,1.003829,1.474444,0.470611,1.474444
0.8200,1.003894,1.503879,0.500000,1.503879
0.8210,1.003958,1.533328,0.529389,1.533328
0.8220,1.004021,1.551588,0.547553,1.551588
0.8230,1.004083,1.551645,0.547553,1.551645
0.8240,1.004144,1.533489,0.529389,1.533489
0.8250,1.004203,1.504203,0.500000,1.504203
0.8260,1.004261,1.474864,0.470611,1.474864
0.8270,1.004317,1.456758,0.452447,1.456758
0.8280,1.004371,1.456802,0.452447,1.456802
0.8290,1.004423,1.475015,0.470611,1.475015
0.8300,1.004474,1.504474,0.500000,1.504474
0.8310,1.004523,1.533909,0.529389,1.533909
0.8320,1.004570,1.552124,0.547553,1.552124
0.8330,1.004614,1.552181,0.547553,1.552181
0.8340,1.004657,1.534094,0.529389,1.534094
0.8350,1.004697,1.504685,0.500000,1.504685
0.8360,1.004735,1.475329,0.470611,1.475329
0.8370,1.004771,1.457247,0.452447,1.457247
0.8380,1.004804,1.457258,0.452447,1.457258
0.8390,1.004835,1.475446,0.470611,1.475446
0.8400,1.004863,1.504857,0.500000,1.504857
0.8410,1.004889,1.534293,0.529389,1.534293
0.8420,1.004912,1.552464,0.547553,1.552464
0.8430,1.004932,1.552504,0.547553,1.552504
0.8440,1.004950,1.534337,0.529389,1.534337
0.8450,1.004965,1.504964,0.500000,1.504964
0.8460,1.004978,1.475625,0.470611,1.475625
0.8470,1.004987,1.457438,0.452447,1.457438
0.8480,1.004994,1.457454,0.452447,1.457454
0.8490,1.004999,1.475606,0.470611,1.475606
0.8500,1.005000,1.505017,0.500000,1.505017
0.8510,1.004999,1.534378,0.529389,1.534378
0.8520,1.004994,1.552551,0.547553,1.552551
0.8530,1.004988,1.552524,0.547553,1.552524
0.8540,1.004978,1.534390,0.529389,1.534390
0.8550,1.004965,1.504961,0.500000,1.504961
0.8560,1.004950,1.475569,0.470611,1.475569
0.8570,1.004932,1.457331,0.452447,1.457331
0.8580,1.004912,1.457327,0.452447,1.457327
0.8590,1.004889,1.475514,0.470611,1.475514
0.8600,1.004863,1.504834,0.500000,1.504834
0.8610,1.004835,1.534239,0.529389,1.534239
0.8620,1.004804,1.552372,0.547553,1.552372
0.8630,1.004771,1.552332,0.547553,1.552332
0.8640,1.004735,1.534103,0.529389,1.534103
0.8650,1.004697,1.504690,0.500000,1.504690
0.8660,1.004657,1.475267,0.470611,1.475267
0.8670,1.004615,1.457072,0.452447,1.457072
0.8680,1.004570,1.457006,0.452447,1.457006
0.8690,1.004523,1.475147,0.470611,1.475147
0.8700,1.004475,1.504467,0.500000,1.504467
0.8710,1.004424,1.533806,0.529389,1.533806
0.8720,1.004371,1.551936,0.547553,1.551936
0.8730,1.004317,1.551856,0.547553,1.551856
0.8740,1.004261,1.533661,0.529389,1.533661
0.8750,1.004204,1.504212,0.500000,1.504212
0.8760,1.004145,1.474747,0.470611,1.474747
0.8770,1.004084,1.456548,0.452447,1.456548
0.8780,1.004022,1.456439,0.452447,1.456439
0.8790,1.003959,1.474582,0.470611,1.474582
0.8800,1.003895,1.503875,0.500000,1.503875
0.8810,1.003829,1.533218,0.529389,1.533218
0.8820,1.003763,1.551301,0.547553,1.551301
0.8830,1.003696,1.551229,0.547553,1.551229
0.8840,1.003628,1.533004,0.529389,1.533004
0.8850,1.003559,1.503513,0.500000,1.503513
0.8860,1.003489,1.474112,0.470611,1.474112
0.8870,1.003420,1.455899,0.452447,1.455899
0.8880,1.003349,1.455802,0.452447,1.455802
0.8890,1.003278,1.473880,0.470611,1.473880
0.8900,1.003207,1.503224,0.500000,1.503224
0.8910,1.003136,1.532549,0.529389,1.532549
0.8920,1.003065,1.550602,0.547553,1.550602
0.8930,1.002993,1.550550,0.547553,1.550550
0.8940,1.002922,1.532340,0.529389,1.532340
0.8950,1.002851,1.502864,0.500000,1.502864
0.8960,1.002780,1.473365,0.470611,1.473365
0.8970,1.002709,1.455153,0.452447,1.455153
0.8980,1.002639,1.455091,0.452447,1.455091
0.8990,1.002569,1.473216,0.470611,1.473216
0.9000,1.002500,1.502503,0.500000,1.502503
0.9010,1.002431,1.531828,0.529389,1.531828
0.9020,1.002362,1.549900,0.547553,1.549900
0.9030,1.002295,1.549825,0.547553,1.549825
0.9040,1.002228,1.531630,0.529389,1.531630
0.9050,1.002162,1.502181,0.500000,1.502181
0.9060,1.002097,1.472731,0.470611,1.472731
0.9070,1.002032,1.454455,0.452447,1.454455
0.9080,1.001969,1.454386,0.452447,1.454386
0.9090,1.001906,1.472552,0.470611,1.472552
0.9100,1.001845,1.501831,0.500000,1.501831
0.9110,1.001784,1.531192,0.529389,1.531192
0.9120,1.001725,1.549248,0.547553,1.549248
0.9130,1.001667,1.549226,0.547553,1.549226
0.9140,1.001609,1.530999,0.529389,1.530999
0.9150,1.001553,1.501558,0.500000,1.501558
0.9160,1.001499,1.472102,0.470611,1.472102
0.9170,1.001445,1.453919,0.452447,1.453919
0.9180,1.001392,1.453833,0.452447,1.453833
0.9190,1.001341,1.471941,0.470611,1.471941
0.9200,1.001291,1.501298,0.500000,1.501298
0.9210,1.001243,1.530628,0.529389,1.530628
0.9220,1.001195,1.548762,0.547553,1.548762
0.9230,1.001149,1.548707,0.547553,1.548707
0.9240,1.001104,1.530463,0.529389,1.530463
0.9250,1.001061,1.501060,0.500000,1.501060
0.9260,1.001018,1.471597,0.470611,1.471597
0.9270,1.000977,1.453428,0.452447,1.453428
0.9280,1.000937,1.453401,0.452447,1.453401
0.9290,1.000899,1.471520,0.470611,1.471520
0.9300,1.000861,1.500859,0.500000,1.500859
0.9310,1.000825,1.530234,0.529389,1.530234
0.9320,1.000791,1.548334,0.547553,1.548334
0.9330,1.000757,1.548308,0.547553,1.548308
0.9340,1.000725,1.530140,0.529389,1.530140
0.9350,1.000693,1.500705,0.500000,1.500705
0.9360,1.000663,1.471310,0.470611,1.471310
0.9370,1.000634,1.453078,0.452447,1.453078
0.9380,1.000607,1.453061,0.452447,1.453061
0.9390,1.000580,1.471194,0.470611,1.471194
0.9400,1.000554,1.500592,0.500000,1.500592
0.9410,1.000530,1.529926,0.529389,1.529926
0.9420,1.000507,1.548033,0.547553,1.548033
0.9430,1.000484,1.548070,0.547553,1.548070
0.9440,1.000463,1.529823,0.529389,1.529823
0.9450,1.000443,1.500441,0.500000,1.500441
0.9460,1.000423,1.471039,0.470611,1.471039
0.9470,1.000405,1.452873,0.452447,1.452873
0.9480,1.000388,1.452859,0.452447,1.452859
0.9490,1.000371,1.470977,0.470611,1.470977
0.9500,1.000355,1.500354,0.500000,1.500354
0.9510,1.000341,1.529770,0.529389,1.529770
0.9520,1.000327,1.547917,0.547553,1.547917
0.9530,1.000314,1.547885,0.547553,1.547885
0.9540,1.000301,1.529690,0.529389,1.529690
0.9550,1.000290,1.500305,0.500000,1.500305
0.9560,1.000279,1.470913,0.470611,1.470913
0.9570,1.000269,1.452764,0.452447,1.452764
0.9580,1.000260,1.452671,0.452447,1.452671
0.9590,1.000252,1.470843,0.470611,1.470843
0.9600,1.000244,1.500253,0.500000,1.500253
0.9610,1.000236,1.529621,0.529389,1.529621
0.9620,1.000230,1.547793,0.547553,1.547793
0.9630,1.000224,1.547803,0.547553,1.547803
0.9640,1.000219,1.529591,0.529389,1.529591
0.9650,1.000214,1.500233,0.500000,1.500233
0.9660,1.000210,1.470798,0.470611,1.470798
0.9670,1.000206,1.452672,0.452447,1.452672
0.9680,1.000203,1.452651,0.452447,1.452651
0.9690,1.000201,1.470852,0.470611,1.470852
0.9700,1.000199,1.500182,0.500000,1.500182
0.9710,1.000197,1.529575,0.529389,1.529575
0.9720,1.000196,1.547730,0.547553,1.547730
0.9730,1.000195,1.547764,0.547553,1.547764
0.9740,1.000195,1.529624,0.529389,1.529624
0.9750,1.000196,1.500195,0.500000,1.500195
0.9760,1.000197,1.470803,0.470611,1.470803
0.9770,1.000198,1.452625,0.452447,1.452625
0.9780,1.000199,1.452645,0.452447,1.452645
0.9790,1.000201,1.470830,0.470611,1.470830
0.9800,1.000204,1.500198,0.500000,1.500198
0.9810,1.000207,1.529606,0.529389,1.529606
0.9820,1.000210,1.547756,0.547553,1.547756
0.9830,1.000213,1.547755,0.547553,1.547755
0.9840,1.000217,1.529605,0.529389,1.529605
0.9850,1.000222,1.500146,0.500000,1.500146
0.9860,1.000226,1.470840,0.470611,1.470840
0.9870,1.000231,1.452639,0.452447,1.452639
0.9880,1.000236,1.452692,0.452447,1.452692
0.9890,1.000242,1.470827,0.470611,1.470827
0.9900,1.000248,1.500220,0.500000,1.500220
0.9910,1.000254,1.529640,0.529389,1.529640
0.9920,1.000261,1.547823,0.547553,1.547823
0.9930,1.000268,1.547893,0.547553,1.547893
0.9940,1.000275,1.529681,0.529389,1.529681
0.9950,1.000282,1.500344,0.500000,1.500344
0.9960,1.000290,1.470908,0.470611,1.470908
0.9970,1.000298,1.452737,0.452447,1.452737
0.9980,1.000307,1.452758,0.452447,1.452758
0.9990,1.000315,1.470894,0.470611,1.470894
1.0000,1.000324,1.500359,0.500000,1.500359
1.0010,1.000333,1.529731,0.529389,1.529731
1.0020,1.000343,1.547894,0.547553,1.547894
1.0030,1.000352,1.547910,0.547553,1.547910
1.0040,1.000362,1.529773,0.529389,1.529773
1.0050,1.000372,1.500361,0.500000,1.500361
1.0060,1.000383,1.470960,0.470611,1.470960
1.0070,1.000394,1.452819,0.452447,1.452819
1.0080,1.000405,1.452849,0.452447,1.452849
1.0090,1.000416,1.471012,0.470611,1.471012
1.0100,1.000427,1.500450,0.500000,1.500450
1.0110,1.000439,1.529853,0.529389,1.529853
1.0120,1.000451,1.548007,0.547553,1.548007
1.0130,1.000463,1.548011,0.547553,1.548011
1.0140,1.000475,1.529852,0.529389,1.529852
1.0150,1.000488,1.500458,0.500000,1.500458
1.0160,1.000500,1.471047,0.470611,1.471047
1.0170,1.000513,1.452977,0.452447,1.452977
1.0180,1.000527,1.452954,0.452447,1.452954
1.0190,1.000540,1.471173,0.470611,1.471173
1.0200,1.000553,1.500548,0.500000,1.500548
1.0210,1.000567,1.529954,0.529389,1.529954
1.0220,1.000581,1.548130,0.547553,1.548130
1.0230,1.000595,1.548142,0.547553,1.548142
1.0240,1.000609,1.530036,0.529389,1.530036
1.0250,1.000624,1.500652,0.500000,1.500652
1.0260,1.000638,1.471241,0.470611,1.471241
1.0270,1.000653,1.453126,0.452447,1.453126
1.0280,1.000668,1.453142,0.452447,1.453142
1.0290,1.000683,1.471288,0.470611,1.471288
1.0300,1.000698,1.500714,0.500000,1.500714
1.0310,1.000713,1.530063,0.529389,1.530063
1.0320,1.000729,1.548278,0.547553,1.548278
1.0330,1.000744,1.548288,0.547553,1.548288
1.0340,1.000760,1.530178,0.529389,1.530178
1.0350,1.000776,1.500764,0.500000,1.500764
1.0360,1.000791,1.471439,0.470611,1.471439
1.0370,1.000807,1.453238,0.452447,1.453238
1.0380,1.000823,1.453272,0.452447,1.453272
1.0390,1.000839,1.471455,0.470611,1.471455
1.0400,1.000855,1.500833,0.500000,1.500833
1.0410,1.000871,1.530274,0.529389,1.530274
1.0420,1.000887,1.548416,0.547553,1.548416
1.0430,1.000903,1.548441,0.547553,1.548441
1.0440,1.000919,1.530302,0.529389,1.530302
1.0450,1.000935,1.500945,0.500000,1.500945
1.0460,1.000951,1.471562,0.470611,1.471562
1.0470,1.000967,1.453373,0.452447,1.453373
1.0480,1.000983,1.453490,0.452447,1.453490
1.0490,1.000999,1.471630,0.470611,1.471630
1.0500,1.001015,1.500994,0.500000,1.500994
1.0510,1.001031,1.530453,0.529389,1.530453
1.0520,1.001047,1.548605,0.547553,1.548605
1.0530,1.001062,1.548584,0.547553,1.548584
1.0540,1.001078,1.530476,0.529389,1.530476
1.0550,1.001093,1.501090,0.500000,1.501090
1.0560,1.001108,1.471730,0.470611,1.471730
1.0570,1.001124,1.453595,0.452447,1.453595
1.0580,1.001139,1.453593,0.452447,1.453593
1.0590,1.001154,1.471740,0.470611,1.471740
1.0600,1.001168,1.501185,0.500000,1.501185
1.0610,1.001183,1.530562,0.529389,1.530562
1.0620,1.001197,1.548691,0.547553,1.548691
1.0630,1.001211,1.548780,0.547553,1.548780
1.0640,1.001225,1.530601,0.529389,1.530601
1.0650,1.001239,1.501245,0.500000,1.501245
1.0660,1.001252,1.471856,0.470611,1.471856
1.0670,1.001265,1.453756,0.452447,1.453756
1.0680,1.001278,1.453728,0.452447,1.453728
1.0690,1.001291,1.471912,0.470611,1.471912
1.0700,1.001303,1.501279,0.500000,1.501279
1.0710,1.001315,1.530685,0.529389,1.530685
1.0720,1.001327,1.548868,0.547553,1.548868
1.0730,1.001338,1.548908,0.547553,1.548908
1.0740,1.001350,1.530714,0.529389,1.530714
1.0750,1.001360,1.501354,0.500000,1.501354
1.0760,1.001371,1.471980,0.470611,1.471980
1.0770,1.001381,1.453860,0.452447,1.453860
1.0780,1.001391,1.453825,0.452447,1.453825
1.0790,1.001400,1.472016,0.470611,1.472016
1.0800,1.001409,1.501423,0.500000,1.501423
1.0810,1.001418,1.530787,0.529389,1.530787
1.0820,1.001426,1.548959,0.547553,1.548959
1.0830,1.001434,1.548996,0.547553,1.548996
1.0840,1.001441,1.530824,0.529389,1.530824
1.0850,1.001448,1.501445,0.500000,1.501445
1.0860,1.001455,1.472067,0.470611,1.472067
1.0870,1.001461,1.453906,0.452447,1.453906
1.0880,1.001467,1.453920,0.452447,1.453920
1.0890,1.001472,1.472090,0.470611,1.472090
1.0900,1.001477,1.501478,0.500000,1.501478
1.0910,1.001481,1.530861,0.529389,1.530861
1.0920,1.001485,1.549026,0.547553,1.549026
1.0930,1.001489,1.549029,0.547553,1.549029
1.0940,1.001492,1.530900,0.529389,1.530900
1.0950,1.001494,1.501536,0.500000,1.501536
1.0960,1.001496,1.472112,0.470611,1.472112
1.0970,1.001498,1.453966,0.452447,1.453966
1.0980,1.001499,1.453934,0.452447,1.453934
1.0990,1.001500,1.472111,0.470611,1.472111
1.1000,1.001500,1.501524,0.500000,1.501524
1.1010,1.001500,1.530845,0.529389,1.530845
1.1020,1.001499,1.549044,0.547553,1.549044
1.1030,1.001498,1.549050,0.547553,1.549050
1.1040,1.001496,1.530871,0.529389,1.530871
1.1050,1.001494,1.501463,0.500000,1.501463
1.1060,1.001492,1.472120,0.470611,1.472120
1.1070,1.001489,1.453934,0.452447,1.453934
1.1080,1.001485,1.453941,0.452447,1.453941
1.1090,1.001481,1.472084,0.470611,1.472084
1.1100,1.001477,1.501487,0.500000,1.501487
1.1110,1.001472,1.530879,0.529389,1.530879
1.1120,1.001467,1.549017,0.547553,1.549017
1.1130,1.001461,1.548987,0.547553,1.548987
1.1140,1.001455,1.530848,0.529389,1.530848
1.1150,1.001448,1.501450,0.500000,1.501450
1.1160,1.001441,1.472098,0.470611,1.472098
1.1170,1.001434,1.453894,0.452447,1.453894
1.1180,1.001426,1.453876,0.452447,1.453876
1.1190,1.001418,1.472042,0.470611,1.472042
1.1200,1.001409,1.501382,0.500000,1.501382
1.1210,1.001400,1.530815,0.529389,1.530815
1.1220,1.001391,1.548934,0.547553,1.548934
1.1230,1.001381,1.548920,0.547553,1.548920
1.1240,1.001371,1.530772,0.529389,1.530772
1.1250,1.001360,1.501341,0.500000,1.501341
1.1260,1.001350,1.471954,0.470611,1.471954
1.1270,1.001338,1.453785,0.452447,1.453785
1.1280,1.001327,1.453784,0.452447,1.453784
1.1290,1.001315,1.471937,0.470611,1.471937
1.1300,1.001303,1.501282,0.500000,1.501282
1.1310,1.001291,1.530686,0.529389,1.530686
1.1320,1.001278,1.548844,0.547553,1.548844
1.1330,1.001265,1.548859,0.547553,1.548859
1.1340,1.001252,1.530642,0.529389,1.530642
1.1350,1.001239,1.501241,0.500000,1.501241
1.1360,1.001225,1.471833,0.470611,1.471833
1.1370,1.001211,1.453685,0.452447,1.453685
1.1380,1.001197,1.453609,0.452447,1.453609
1.1390,1.001183,1.471805,0.470611,1.471805
1.1400,1.001168,1.501163,0.500000,1.501163
1.1410,1.001153,1.530539,0.529389,1.530539
1.1420,1.001139,1.548649,0.547553,1.548649
1.1430,1.001124,1.548695,0.547553,1.548695
1.1440,1.001108,1.530504,0.529389,1.530504
1.1450,1.001093,1.501047,0.500000,1.501047
1.1460,1.001078,1.471698,0.470611,1.471698
1.1470,1.001062,1.453462,0.452447,1.453462
1.1480,1.001046,1.453482,0.452447,1.453482
1.1490,1.001031,1.471637,0.470611,1.471637
1.1500,1.001015,1.501007,0.500000,1.501007
1.1510,1.000999,1.530354,0.529389,1.530354
1.1520,1.000983,1.548490,0.547553,1.548490
1.1530,1.000967,1.548535,0.547553,1.548535
1.1540,1.000951,1.530338,0.529389,1.530338
1.1550,1.000935,1.500892,0.500000,1.500892
1.1560,1.000919,1.471515,0.470611,1.471515
1.1570,1.000903,1.453320,0.452447,1.453320
1.1580,1.000887,1.453338,0.452447,1.453338
1.1590,1.000871,1.471508,0.470611,1.471508
1.1600,1.000855,1.500862,0.500000,1.500862
1.1610,1.000839,1.530224,0.529389,1.530224
1.1620,1.000823,1.548385,0.547553,1.548385
1.1630,1.000807,1.548368,0.547553,1.548368
1.1640,1.000791,1.530179,0.529389,1.530179
1.1650,1.000775,1.500796,0.500000,1.500796
1.1660,1.000759,1.471374,0.470611,1.471374
1.1670,1.000744,1.453187,0.452447,1.453187
1.1680,1.000728,1.453200,0.452447,1.453200
1.1690,1.000713,1.471332,0.470611,1.471332
1.1700,1.000698,1.500707,0.500000,1.500707
1.1710,1.000682,1.530077,0.529389,1.530077
1.1720,1.000667,1.548233,0.547553,1.548233
1.1730,1.000652,1.548191,0.547553,1.548191
1.1740,1.000638,1.530051,0.529389,1.530051
1.1750,1.000623,1.500621,0.500000,1.500621
1.1760,1.000608,1.471200,0.470611,1.471200
1.1770,1.000594,1.453049,0.452447,1.453049
1.1780,1.000580,1.452993,0.452447,1.452993
1.1790,1.000566,1.471189,0.470611,1.471189
1.1800,1.000552,1.500545,0.500000,1.500545
1.1810,1.000538,1.529928,0.529389,1.529928
1.1820,1.000525,1.548078,0.547553,1.548078
1.1830,1.000511,1.548075,0.547553,1.548075
1.1840,1.000498,1.529873,0.529389,1.529873
1.1850,1.000485,1.500509,0.500000,1.500509
1.1860,1.000472,1.471073,0.470611,1.471073
1.1870,1.000460,1.452904,0.452447,1.452904
1.1880,1.000447,1.452902,0.452447,1.452902
1.1890,1.000435,1.471002,0.470611,1.471002
1.1900,1.000423,1.500422,0.500000,1.500422
1.1910,1.000411,1.529774,0.529389,1.529774
1.1920,1.000400,1.547970,0.547553,1.547970
1.1930,1.000388,1.547947,0.547553,1.547947
1.1940,1.000377,1.529746,0.529389,1.529746
1.1950,1.000366,1.500375,0.500000,1.500375
1.1960,1.000355,1.470989,0.470611,1.470989
1.1970,1.000345,1.452773,0.452447,1.452773
1.1980,1.000334,1.452749,0.452447,1.452749
1.1990,1.000324,1.470943,0.470611,1.470943
1.2000,1.000314,1.500317,0.500000,1.500317
1.2010,1.000305,1.529686,0.529389,1.529686
1.2020,1.000295,1.547884,0.547553,1.547884
1.2030,1.000286,1.547817,0.547553,1.547817
1.2040,1.000277,1.529657,0.529389,1.529657
1.2050,1.000268,1.500276,0.500000,1.500276
1.2060,1.000259,1.470877,0.470611,1.470877
1.2070,1.000251,1.452730,0.452447,1.452730
1.2080,1.000242,1.452674,0.452447,1.452674
1.2090,1.000234,1.470835,0.470611,1.470835
1.2100,1.000226,1.500253,0.500000,1.500253
1.2110,1.000219,1.529606,0.529389,1.529606
1.2120,1.000211,1.547763,0.547553,1.547763
1.2130,1.000204,1.547746,0.547553,1.547746
1.2140,1.000197,1.529574,0.529389,1.529574
1.2150,1.000190,1.500170,0.500000,1.500170
1.2160,1.000183,1.470807,0.470611,1.470807
1.2170,1.000177,1.452651,0.452447,1.452651
1.2180,1.000170,1.452610,0.452447,1.452610
1.2190,1.000164,1.470788,0.470611,1.470788
1.2200,1.000158,1.500182,0.500000,1.500182
1.2210,1.000152,1.529534,0.529389,1.529534
1.2220,1.000147,1.547736,0.547553,1.547736
1.2230,1.000141,1.547731,0.547553,1.547731
1.2240,1.000136,1.529505,0.529389,1.529505
1.2250,1.000131,1.500135,0.500000,1.500135
1.2260,1.000126,1.470761,0.470611,1.470761
1.2270,1.000121,1.452550,0.452447,1.452550
1.2280,1.000116,1.452552,0.452447,1.452552
1.2290,1.000111,1.470735,0.470611,1.470735
1.2300,1.000107,1.500140,0.500000,1.500140
1.2310,1.000103,1.529465,0.529389,1.529465
1.2320,1.000099,1.547690,0.547553,1.547690
1.2330,1.000095,1.547652,0.547553,1.547652
1.2340,1.000091,1.529476,0.529389,1.529476
1.2350,1.000087,1.500109,0.500000,1.500109
1.2360,1.000083,1.470711,0.470611,1.470711
1.2370,1.000080,1.452549,0.452447,1.452549
1.2380,1.000077,1.452533,0.452447,1.452533
1.2390,1.000073,1.470675,0.470611,1.470675
1.2400,1.000070,1.500084,0.500000,1.500084
1.2410,1.000067,1.529455,0.529389,1.529455
1.2420,1.000064,1.547596,0.547553,1.547596
1.2430,1.000061,1.547598,0.547553,1.547598
1.2440,1.000059,1.529446,0.529389,1.529446
1.2450,1.000056,1.500056,0.500000,1.500056
1.2460,1.000054,1.470662,0.470611,1.470662
1.2470,1.000051,1.452504,0.452447,1.452504
1.2480,1.000049,1.452492,0.452447,1.452492
1.2490,1.000047,1.470655,0.470611,1.470655
1.2500,1.000045,1.500050,0.500000,1.500050
1.2510,1.000043,1.529403,0.529389,1.529403
1.2520,1.000041,1.547625,0.547553,1.547625
1.2530,1.000039,1.547617,0.547553,1.547617
1.2540,1.000037,1.529400,0.529389,1.529400
1.2550,1.000035,1.500016,0.500000,1.500016
1.2560,1.000033,1.470585,0.470611,1.470585
1.2570,1.000032,1.452502,0.452447,1.452502
1.2580,1.000030,1.452473,0.452447,1.452473
1.2590,1.000029,1.470662,0.470611,1.470662
1.2600,1.000027,1.500011,0.500000,1.500011
1.2610,1.000026,1.529379,0.529389,1.529379
1.2620,1.000025,1.547556,0.547553,1.547556
1.2630,1.000024,1.547571,0.547553,1.547571
1.2640,1.000022,1.529401,0.529389,1.529401
1.2650,1.000021,1.500000,0.500000,1.500000
1.2660,1.000020,1.470621,0.470611,1.470621
1.2670,1.000019,1.452481,0.452447,1.452481
1.2680,1.000018,1.452458,0.452447,1.452458
1.2690,1.000017,1.470636,0.470611,1.470636
1.2700,1.000016,1.499995,0.500000,1.499995
1.2710,1.000016,1.529397,0.529389,1.529397
1.2720,1.000015,1.547585,0.547553,1.547585
1.2730,1.000014,1.547590,0.547553,1.547590
1.2740,1.000013,1.529438,0.529389,1.529438
1.2750,1.000013,1.499974,0.500000,1.499974
1.2760,1.000012,1.470625,0.470611,1.470625
1.2770,1.000011,1.452437,0.452447,1.452437
1.2780,1.000011,1.452443,0.452447,1.452443
1.2790,1.000010,1.470666,0.470611,1.470666
1.2800,1.000009,1.499995,0.500000,1.499995
1.2810,1.000009,1.529406,0.529389,1.529406
1.2820,1.000008,1.547574,0.547553,1.547574
1.2830,1.000008,1.547570,0.547553,1.547570
1.2840,1.000008,1.529382,0.529389,1.529382
1.2850,1.000007,1.499997,0.500000,1.499997
1.2860,1.000007,1.470622,0.470611,1.470622
1.2870,1.000006,1.452463,0.452447,1.452463
1.2880,1.000006,1.452441,0.452447,1.452441
1.2890,1.000006,1.470623,0.470611,1.470623
1.2900,1.000005,1.500012,0.500000,1.500012
1.2910,1.000005,1.529357,0.529389,1.529357
1.2920,1.000005,1.547566,0.547553,1.547566
1.2930,1.000004,1.547572,0.547553,1.547572
1.2940,1.000004,1.529415,0.529389,1.529415
1.2950,1.000004,1.500037,0.500000,1.500037
1.2960,1.000004,1.470602,0.470611,1.470602
1.2970,1.000003,1.452428,0.452447,1.452428
1.2980,1.000003,1.452479,0.452447,1.452479
1.2990,1.000003,1.470617,0.470611,1.470617
1.3000,1.000003,1.500006,0.500000,1.500006
1.3010,1.000003,1.529375,0.529389,1.529375
1.3020,1.000003,1.547577,0.547553,1.547577
1.3030,1.000002,1.547527,0.547553,1.547527
1.3040,1.000002,1.529392,0.529389,1.529392
1.3050,1.000002,1.500005,0.500000,1.500005
1.3060,1.000002,1.470629,0.470611,1.470629
1.3070,1.000002,1.452473,0.452447,1.452473
1.3080,1.000002,1.452430,0.452447,1.452430
1.3090,1.000002,1.470624,0.470611,1.470624
1.3100,1.000002,1.500031,0.500000,1.500031
1.3110,1.000001,1.529376,0.529389,1.529376
1.3120,1.000001,1.547597,0.547553,1.547597
1.3130,1.000001,1.547523,0.547553,1.547523
1.3140,1.000001,1.529396,0.529389,1.529396
1.3150,1.000001,1.500008,0.500000,1.500008
1.3160,1.000001,1.470623,0.470611,1.470623
1.3170,1.000001,1.452459,0.452447,1.452459
1.3180,1.000001,1.452464,0.452447,1.452464
1.3190,1.000001,1.470612,0.470611,1.470612
1.3200,1.000001,1.499986,0.500000,1.499986
1.3210,1.000001,1.529369,0.529389,1.529369
1.3220,1.000001,1.547565,0.547553,1.547565
1.3230,1.000001,1.547563,0.547553,1.547563
1.3240,1.000001,1.529430,0.529389,1.529430
1.3250,1.000001,1.500006,0.500000,1.500006
1.3260,1.000001,1.470617,0.470611,1.470617
1.3270,1.000000,1.452475,0.452447,1.452475
1.3280,1.000000,1.452449,0.452447,1.452449
1.3290,1.000000,1.470610,0.470611,1.470610
1.3300,1.000000,1.500002,0.500000,1.500002
1.3310,1.000000,1.529405,0.529389,1.529405
1.3320,1.000000,1.547566,0.547553,1.547566
1.3330,1.000000,1.547535,0.547553,1.547535
1.3340,1.000000,1.529382,0.529389,1.529382
1.3350,1.000000,1.499970,0.500000,1.499970
1.3360,1.000000,1.470642,0.470611,1.470642
1.3370,1.000000,1.452451,0.452447,1.452451
1.3380,1.000000,1.452433,0.452447,1.452433
1.3390,1.000000,1.470614,0.470611,1.470614
1.3400,1.000000,1.499977,0.500000,1.499977
1.3410,1.000000,1.529401,0.529389,1.529401
1.3420,1.000000,1.547578,0.547553,1.547578
1.3430,1.000000,1.547556,0.547553,1.547556
1.3440,1.000000,1.529396,0.529389,1.529396
1.3450,1.000000,1.499978,0.500000,1.499978
1.3460,1.000000,1.470590,0.470611,1.470590
1.3470,1.000000,1.452477,0.452447,1.452477
1.3480,1.000000,1.452468,0.452447,1.452468
1.3490,1.000000,1.470626,0.470611,1.470626
1.3500,1.000000,1.499958,0.500000,1.499958
1.3510,1.000000,1.529360,0.529389,1.529360
1.3520,1.000000,1.547566,0.547553,1.547566
1.3530,1.000000,1.547554,0.547553,1.547554
1.3540,1.000000,1.529388,0.529389,1.529388
1.3550,1.000000,1.500000,0.500000,1.500000
1.3560,1.000000,1.470615,0.470611,1.470615
1.3570,1.000000,1.452445,0.452447,1.452445
1.3580,1.000000,1.452431,0.452447,1.452431
1.3590,1.000000,1.470617,0.470611,1.470617
1.3600,1.000000,1.500007,0.500000,1.500007
1.3610,1.000000,1.529394,0.529389,1.529394
1.3620,1.000000,1.547582,0.547553,1.547582
1.3630,1.000000,1.547567,0.547553,1.547567
1.3640,1.000000,1.529388,0.529389,1.529388
1.3650,1.000000,1.500001,0.500000,1.500001
1.3660,1.000000,1.470621,0.470611,1.470621
1.3670,1.000000,1.452410,0.452447,1.452410
1.3680,1.000000,1.452444,0.452447,1.452444
1.3690,1.000000,1.470610,0.470611,1.470610
1.3700,1.000000,1.499995,0.500000,1.499995
1.3710,1.000000,1.529393,0.529389,1.529393
1.3720,1.000000,1.547520,0.547553,1.547520
1.3730,1.000000,1.547544,0.547553,1.547544
1.3740,1.000000,1.529406,0.529389,1.529406
1.3750,1.000000,1.499989,0.500000,1.499989
1.3760,1.000000,1.470602,0.470611,1.470602
1.3770,1.000000,1.452473,0.452447,1.452473
1.3780,1.000000,1.452392,0.452447,1.452392
1.3790,1.000000,1.470625,0.470611,1.470625
1.3800,1.000000,1.499981,0.500000,1.499981
1.3810,1.000000,1.529401,0.529389,1.529401
1.3820,1.000000,1.547525,0.547553,1.547525
1.3830,1.000000,1.547575,0.547553,1.547575
1.3840,1.000000,1.529411,0.529389,1.529411
1.3850,1.000000,1.499990,0.500000,1.499990
1.3860,1.000000,1.470630,0.470611,1.470630
1.3870,1.000000,1.452432,0.452447,1.452432
1.3880,1.000000,1.452425,0.452447,1.452425
1.3890,1.000000,1.470610,0.470611,1.470610
1.3900,1.000000,1.499975,0.500000,1.499975
1.3910,1.000000,1.529429,0.529389,1.529429
1.3920,1.000000,1.547517,0.547553,1.547517
1.3930,1.000000,1.547564,0.547553,1.547564
1.3940,1.000000,1.529395,0.529389,1.529395
1.3950,1.000000,1.499975,0.500000,1.499975
1.3960,1.000000,1.470593,0.470611,1.470593
1.3970,1.000000,1.452431,0.452447,1.452431
1.3980,1.000000,1.452469,0.452447,1.452469
1.3990,1.000000,1.470636,0.470611,1.470636
1.4000,1.000000,1.500006,0.500000,1.500006
1.4010,1.000000,1.529430,0.529389,1.529430
1.4020,1.000000,1.547550,0.547553,1.547550
1.4030,1.000000,1.547570,0.547553,1.547570
1.4040,1.000000,1.529402,0.529389,1.529402
1.4050,1.000000,1.499975,0.500000,1.499975
1.4060,1.000000,1.470594,0.470611,1.470594
1.4070,1.000000,1.452467,0.452447,1.452467
1.4080,1.000000,1.452447,0.452447,1.452447
1.4090,1.000000,1.470593,0.470611,1.470593
1.4100,1.000000,1.500034,0.500000,1.500034
1.4110,1.000000,1.529406,0.529389,1.529406
1.4120,1.000000,1.547564,0.547553,1.547564
1.4130,1.000000,1.547577,0.547553,1.547577
1.4140,1.000000,1.529362,0.529389,1.529362
1.4150,1.000000,1.500037,0.500000,1.500037
1.4160,1.000000,1.470620,0.470611,1.470620
1.4170,1.000000,1.452478,0.452447,1.452478
1.4180,1.000000,1.452445,0.452447,1.452445
1.4190,1.000000,1.470589,0.470611,1.470589
1.4200,1.000000,1.499978,0.500000,1.499978
1.4210,1.000000,1.529403,0.529389,1.529403
1.4220,1.000000,1.547547,0.547553,1.547547
1.4230,1.000000,1.547526,0.547553,1.547526
1.4240,1.000000,1.529407,0.529389,1.529407
1.4250,1.000000,1.500018,0.500000,1.500018
1.4260,1.000000,1.470581,0.470611,1.470581
1.4270,1.000000,1.452448,0.452447,1.452448
1.4280,1.000000,1.452440,0.452447,1.452440
1.4290,1.000000,1.470603,0.470611,1.470603
1.4300,1.000000,1.500010,0.500000,1.500010
1.4310,1.000000,1.529359,0.529389,1.529359
1.4320,1.000000,1.547544,0.547553,1.547544
1.4330,1.000000,1.547552,0.547553,1.547552
1.4340,1.000000,1.529405,0.529389,1.529405
1.4350,1.000000,1.500008,0.500000,1.500008
1.4360,1.000000,1.470611,0.470611,1.470611
1.4370,1.000000,1.452442,0.452447,1.452442
1.4380,1.000000,1.452455,0.452447,1.452455
1.4390,1.000000,1.470572,0.470611,1.470572
1.4400,1.000000,1.499954,0.500000,1.499954
1.4410,1.000000,1.529373,0.529389,1.529373
1.4420,1.000000,1.547542,0.547553,1.547542
1.4430,1.000000,1.547545,0.547553,1.547545
1.4440,1.000000,1.529386,0.529389,1.529386
1.4450,1.000000,1.499983,0.500000,1.499983
1.4460,1.000000,1.470628,0.470611,1.470628
1.4470,1.000000,1.452460,0.452447,1.452460
1.4480,1.000000,1.452421,0.452447,1.452421
1.4490,1.000000,1.470598,0.470611,1.470598
1.4500,1.000000,1.499988,0.500000,1.499988
1.4510,1.000000,1.529383,0.529389,1.529383
1.4520,1.000000,1.547533,0.547553,1.547533
1.4530,1.000000,1.547497,0.547553,1.547497
1.4540,1.000000,1.529404,0.529389,1.529404
1.4550,1.000000,1.499986,0.500000,1.499986
1.4560,1.000000,1.470631,0.470611,1.470631
1.4570,1.000000,1.452474,0.452447,1.452474
1.4580,1.000000,1.452447,0.452447,1.452447
1.4590,1.000000,1.470594,0.470611,1.470594
1.4600,1.000000,1.499989,0.500000,1.499989
1.4610,1.000000,1.529397,0.529389,1.529397
1.4620,1.000000,1.547514,0.547553,1.547514
1.4630,1.000000,1.547582,0.547553,1.547582
1.4640,1.000000,1.529382,0.529389,1.529382
1.4650,1.000000,1.500014,0.500000,1.500014
1.4660,1.000000,1.470617,0.470611,1.470617
1.4670,1.000000,1.452412,0.452447,1.452412
1.4680,1.000000,1.452442,0.452447,1.452442
1.4690,1.000000,1.470614,0.470611,1.470614
1.4700,1.000000,1.499994,0.500000,1.499994
1.4710,1.000000,1.529403,0.529389,1.529403
1.4720,1.000000,1.547556,0.547553,1.547556
1.4730,1.000000,1.547530,0.547553,1.547530
1.4740,1.000000,1.529410,0.529389,1.529410
1.4750,1.000000,1.499998,0.500000,1.499998
1.4760,1.000000,1.470592,0.470611,1.470592
1.4770,1.000000,1.452435,0.452447,1.452435
1.4780,1.000000,1.452471,0.452447,1.452471
1.4790,1.000000,1.470597,0.470611,1.470597
1.4800,1.000000,1.500002,0.500000,1.500002
1.4810,1.000000,1.529359,0.529389,1.529359
1.4820,1.000000,1.547557,0.547553,1.547557
1.4830,1.000000,1.547544,0.547553,1.547544
1.4840,1.000000,1.529391,0.529389,1.529391
1.4850,1.000000,1.500026,0.500000,1.500026
1.4860,1.000000,1.470568,0.470611,1.470568
1.4870,1.000000,1.452452,0.452447,1.452452
1.4880,1.000000,1.452450,0.452447,1.452450
1.4890,1.000000,1.470641,0.470611,1.470641
1.4900,1.000000,1.499981,0.500000,1.499981
1.4910,1.000000,1.529368,0.529389,1.529368
1.4920,1.000000,1.547627,0.547553,1.547627
1.4930,1.000000,1.547569,0.547553,1.547569
1.4940,1.000000,1.529367,0.529389,1.529367
1.4950,1.000000,1.500030,0.500000,1.500030
1.4960,1.000000,1.470621,0.470611,1.470621
1.4970,1.000000,1.452451,0.452447,1.452451
1.4980,1.000000,1.452465,0.452447,1.452465
1.4990,1.000000,1.470626,0.470611,1.470626
1.5000,1.000000,1.499993,0.500000,1.499993
1.5010,1.000000,1.529385,0.529389,1.529385
1.5020,1.000000,1.547595,0.547553,1.547595
1.5030,1.000000,1.547521,0.547553,1.547521
1.5040,1.000000,1.529408,0.529389,1.529408
1.5050,1.000000,1.500028,0.500000,1.500028
1.5060,1.000000,1.470585,0.470611,1.470585
1.5070,1.000000,1.452457,0.452447,1.452457
1.5080,1.000000,1.452458,0.452447,1.452458
1.5090,1.000000,1.470593,0.470611,1.470593
1.5100,1.000000,1.499976,0.500000,1.499976
1.5110,1.000000,1.529345,0.529389,1.529345
1.5120,1.000000,1.547564,0.547553,1.547564
1.5130,1.000000,1.547534,0.547553,1.547534
1.5140,1.000311,1.529703,0.529389,1.529703
1.5150,1.000329,1.500309,0.500000,1.500309
1.5160,1.000347,1.470975,0.470611,1.470975
1.5170,1.000366,1.452795,0.452447,1.452795
1.5180,1.000387,1.452815,0.452447,1.452815
1.5190,1.000408,1.471025,0.470611,1.471025
1.5200,1.000430,1.500434,0.500000,1.500434
1.5210,1.000452,1.529783,0.529389,1.529783
1.5220,1.000476,1.548028,0.547553,1.548028
1.5230,1.000501,1.548103,0.547553,1.548103
1.5240,1.000527,1.529935,0.529389,1.529935
1.5250,1.000554,1.500576,0.500000,1.500576
1.5260,1.000582,1.471197,0.470611,1.471197
1.5270,1.000611,1.453046,0.452447,1.453046
1.5280,1.000641,1.453095,0.452447,1.453095
1.5290,1.000672,1.471317,0.470611,1.471317
1.5300,1.000704,1.500687,0.500000,1.500687
1.5310,1.000738,1.530109,0.529389,1.530109
1.5320,1.000772,1.548320,0.547553,1.548320
1.5330,1.000808,1.548364,0.547553,1.548364
1.5340,1.000845,1.530215,0.529389,1.530215
1.5350,1.000883,1.500880,0.500000,1.500880
1.5360,1.000923,1.471541,0.470611,1.471541
1.5370,1.000963,1.453396,0.452447,1.453396
1.5380,1.001005,1.453450,0.452447,1.453450
1.5390,1.001048,1.471646,0.470611,1.471646
1.5400,1.001092,1.501142,0.500000,1.501142
1.5410,1.001138,1.530527,0.529389,1.530527
1.5420,1.001185,1.548719,0.547553,1.548719
1.5430,1.001233,1.548757,0.547553,1.548757
1.5440,1.001282,1.530684,0.529389,1.530684
1.5450,1.001332,1.501330,0.500000,1.501330
1.5460,1.001384,1.471964,0.470611,1.471964
1.5470,1.001437,1.453899,0.452447,1.453899
1.5480,1.001491,1.453958,0.452447,1.453958
1.5490,1.001546,1.472109,0.470611,1.472109
1.5500,1.001603,1.501615,0.500000,1.501615
1.5510,1.001660,1.531027,0.529389,1.531027
1.5520,1.001719,1.549250,0.547553,1.549250
1.5530,1.001779,1.549319,0.547553,1.549319
1.5540,1.001839,1.531241,0.529389,1.531241
1.5550,1.001901,1.501878,0.500000,1.501878
1.5560,1.001964,1.472560,0.470611,1.472560
1.5570,1.002028,1.454448,0.452447,1.454448
1.5580,1.002092,1.454549,0.452447,1.454549
1.5590,1.002158,1.472795,0.470611,1.472795
1.5600,1.002224,1.502225,0.500000,1.502225
1.5610,1.002291,1.531721,0.529389,1.531721
1.5620,1.002359,1.549894,0.547553,1.549894
1.5630,1.002428,1.549994,0.547553,1.549994
1.5640,1.002497,1.531846,0.529389,1.531846
1.5650,1.002566,1.502562,0.500000,1.502562
1.5660,1.002636,1.473248,0.470611,1.473248
1.5670,1.002707,1.455118,0.452447,1.455118
1.5680,1.002778,1.455211,0.452447,1.455211
1.5690,1.002849,1.473473,0.470611,1.473473
1.5700,1.002920,1.502933,0.500000,1.502933
1.5710,1.002992,1.532397,0.529389,1.532397
1.5720,1.003063,1.550654,0.547553,1.550654
1.5730,1.003135,1.550696,0.547553,1.550696
1.5740,1.003206,1.532594,0.529389,1.532594
1.5750,1.003277,1.503288,0.500000,1.503288
1.5760,1.003348,1.473973,0.470611,1.473973
1.5770,1.003418,1.455816,0.452447,1.455816
1.5780,1.003488,1.455958,0.452447,1.455958
1.5790,1.003558,1.474164,0.470611,1.474164
1.5800,1.003627,1.503612,0.500000,1.503612
1.5810,1.003695,1.533090,0.529389,1.533090
1.5820,1.003762,1.551296,0.547553,1.551296
1.5830,1.003829,1.551382,0.547553,1.551382
1.5840,1.003894,1.533296,0.529389,1.533296
1.5850,1.003958,1.503971,0.500000,1.503971
1.5860,1.004021,1.474625,0.470611,1.474625
1.5870,1.004083,1.456579,0.452447,1.456579
1.5880,1.004144,1.456584,0.452447,1.456584
1.5890,1.004203,1.474838,0.470611,1.474838
1.5900,1.004261,1.504216,0.500000,1.504216
1.5910,1.004317,1.533712,0.529389,1.533712
1.5920,1.004371,1.551928,0.547553,1.551928
1.5930,1.004423,1.551995,0.547553,1.551995
1.5940,1.004474,1.533882,0.529389,1.533882
1.5950,1.004523,1.504524,0.500000,1.504524
1.5960,1.004570,1.475212,0.470611,1.475212
1.5970,1.004614,1.457034,0.452447,1.457034
1.5980,1.004657,1.457076,0.452447,1.457076
1.5990,1.004697,1.475284,0.470611,1.475284
1.6000,1.004735,1.504731,0.500000,1.504731
1.6010,1.004771,1.534138,0.529389,1.534138
1.6020,1.004804,1.552389,0.547553,1.552389
1.6030,1.004835,1.552394,0.547553,1.552394
1.6040,1.004863,1.534249,0.529389,1.534249
1.6050,1.004889,1.504935,0.500000,1.504935
1.6060,1.004912,1.475486,0.470611,1.475486
1.6070,1.004932,1.457372,0.452447,1.457372
1.6080,1.004950,1.457395,0.452447,1.457395
1.6090,1.004965,1.475563,0.470611,1.475563
1.6100,1.004978,1.504944,0.500000,1.504944
1.6110,1.004987,1.534379,0.529389,1.534379
1.6120,1.004994,1.552518,0.547553,1.552518
1.6130,1.004999,1.552572,0.547553,1.552572
1.6140,1.005000,1.534392,0.529389,1.534392
1.6150,1.004999,1.504988,0.500000,1.504988
1.6160,1.004994,1.475609,0.470611,1.475609
1.6170,1.004988,1.457400,0.452447,1.457400
1.6180,1.004978,1.457418,0.452447,1.457418
1.6190,1.004965,1.475536,0.470611,1.475536
1.6200,1.004950,1.504941,0.500000,1.504941
1.6210,1.004932,1.534359,0.529389,1.534359
1.6220,1.004912,1.552413,0.547553,1.552413
1.6230,1.004889,1.552408,0.547553,1.552408
1.6240,1.004863,1.534223,0.529389,1.534223
1.6250,1.004835,1.504824,0.500000,1.504824
1.6260,1.004804,1.475413,0.470611,1.475413
1.6270,1.004771,1.457198,0.452447,1.457198
1.6280,1.004735,1.457179,0.452447,1.457179
1.6290,1.004697,1.475333,0.470611,1.475333
1.6300,1.004657,1.504627,0.500000,1.504627
1.6310,1.004615,1.534013,0.529389,1.534013
1.6320,1.004570,1.552097,0.547553,1.552097
1.6330,1.004523,1.552107,0.547553,1.552107
1.6340,1.004475,1.533864,0.529389,1.533864
1.6350,1.004424,1.504435,0.500000,1.504435
1.6360,1.004371,1.474988,0.470611,1.474988
1.6370,1.004317,1.456754,0.452447,1.456754
1.6380,1.004261,1.456737,0.452447,1.456737
1.6390,1.004204,1.474817,0.470611,1.474817
1.6400,1.004145,1.504175,0.500000,1.504175
1.6410,1.004084,1.533453,0.529389,1.533453
1.6420,1.004022,1.551544,0.547553,1.551544
1.6430,1.003959,1.551520,0.547553,1.551520
1.6440,1.003895,1.533246,0.529389,1.533246
1.6450,1.003829,1.503840,0.500000,1.503840
1.6460,1.003763,1.474379,0.470611,1.474379
1.6470,1.003696,1.456173,0.452447,1.456173
1.6480,1.003628,1.456089,0.452447,1.456089
1.6490,1.003559,1.474150,0.470611,1.474150
1.6500,1.003489,1.503487,0.500000,1.503487
1.6510,1.003420,1.532793,0.529389,1.532793
1.6520,1.003349,1.550923,0.547553,1.550923
1.6530,1.003278,1.550834,0.547553,1.550834
1.6540,1.003207,1.532564,0.529389,1.532564
1.6550,1.003136,1.503157,0.500000,1.503157
1.6560,1.003065,1.473704,0.470611,1.473704
1.6570,1.002993,1.455484,0.452447,1.455484
1.6580,1.002922,1.455395,0.452447,1.455395
1.6590,1.002851,1.473435,0.470611,1.473435
1.6600,1.002780,1.502778,0.500000,1.502778
1.6610,1.002709,1.532094,0.529389,1.532094
1.6620,1.002639,1.550158,0.547553,1.550158
1.6630,1.002569,1.550117,0.547553,1.550117
1.6640,1.002500,1.531904,0.529389,1.531904
1.6650,1.002431,1.502425,0.500000,1.502425
1.6660,1.002362,1.473010,0.470611,1.473010
1.6670,1.002295,1.454726,0.452447,1.454726
1.6680,1.002228,1.454694,0.452447,1.454694
1.6690,1.002162,1.472777,0.470611,1.472777
1.6700,1.002097,1.502035,0.500000,1.502035
1.6710,1.002032,1.531398,0.529389,1.531398
1.6720,1.001969,1.549549,0.547553,1.549549
1.6730,1.001906,1.549476,0.547553,1.549476
1.6740,1.001845,1.531233,0.529389,1.531233
1.6750,1.001784,1.501806,0.500000,1.501806
1.6760,1.001725,1.472337,0.470611,1.472337
1.6770,1.001667,1.454104,0.452447,1.454104
1.6780,1.001609,1.454047,0.452447,1.454047
1.6790,1.001553,1.472170,0.470611,1.472170
1.6800,1.001499,1.501513,0.500000,1.501513
1.6810,1.001445,1.530834,0.529389,1.530834
1.6820,1.001392,1.548933,0.547553,1.548933
1.6830,1.001341,1.548875,0.547553,1.548875
1.6840,1.001291,1.530666,0.529389,1.530666
1.6850,1.001243,1.501222,0.500000,1.501222
1.6860,1.001195,1.471778,0.470611,1.471778
1.6870,1.001149,1.453637,0.452447,1.453637
1.6880,1.001104,1.453521,0.452447,1.453521
1.6890,1.001061,1.471702,0.470611,1.471702
1.6900,1.001018,1.501012,0.500000,1.501012
1.6910,1.000977,1.530352,0.529389,1.530352
1.6920,1.000937,1.548488,0.547553,1.548488
1.6930,1.000899,1.548452,0.547553,1.548452
1.6940,1.000861,1.530249,0.529389,1.530249
1.6950,1.000825,1.500820,0.500000,1.500820
1.6960,1.000791,1.471430,0.470611,1.471430
1.6970,1.000757,1.453196,0.452447,1.453196
1.6980,1.000725,1.453187,0.452447,1.453187
1.6990,1.000693,1.471313,0.470611,1.471313
1.7000,1.000663,1.500691,0.500000,1.500691
1.7010,1.000634,1.530016,0.529389,1.530016
1.7020,1.000607,1.548176,0.547553,1.548176
1.7030,1.000580,1.548116,0.547553,1.548116
1.7040,1.000554,1.529953,0.529389,1.529953
1.7050,1.000530,1.500540,0.500000,1.500540
1.7060,1.000507,1.471078,0.470611,1.471078
1.7070,1.000484,1.452943,0.452447,1.452943
1.7080,1.000463,1.452896,0.452447,1.452896
1.7090,1.000443,1.471065,0.470611,1.471065
1.7100,1.000423,1.500449,0.500000,1.500449
1.7110,1.000405,1.529769,0.529389,1.529769
1.7120,1.000388,1.547968,0.547553,1.547968
1.7130,1.000371,1.547926,0.547553,1.547926
1.7140,1.000355,1.529726,0.529389,1.529726
1.7150,1.000341,1.500359,0.500000,1.500359
1.7160,1.000327,1.470958,0.470611,1.470958
1.7170,1.000314,1.452822,0.452447,1.452822
1.7180,1.000301,1.452772,0.452447,1.452772
1.7190,1.000290,1.470874,0.470611,1.470874
1.7200,1.000279,1.500300,0.500000,1.500300
1.7210,1.000269,1.529689,0.529389,1.529689
1.7220,1.000260,1.547810,0.547553,1.547810
1.7230,1.000252,1.547856,0.547553,1.547856
1.7240,1.000244,1.529620,0.529389,1.529620
1.7250,1.000236,1.500229,0.500000,1.500229
1.7260,1.000230,1.470830,0.470611,1.470830
1.7270,1.000224,1.452681,0.452447,1.452681
1.7280,1.000219,1.452663,0.452447,1.452663
1.7290,1.000214,1.470817,0.470611,1.470817
1.7300,1.000210,1.500236,0.500000,1.500236
1.7310,1.000206,1.529597,0.529389,1.529597
1.7320,1.000203,1.547756,0.547553,1.547756
1.7330,1.000201,1.547740,0.547553,1.547740
1.7340,1.000199,1.529631,0.529389,1.529631
1.7350,1.000197,1.500194,0.500000,1.500194
1.7360,1.000196,1.470787,0.470611,1.470787
1.7370,1.000195,1.452632,0.452447,1.452632
1.7380,1.000195,1.452648,0.452447,1.452648
1.7390,1.000196,1.470795,0.470611,1.470795
1.7400,1.000197,1.500227,0.500000,1.500227
1.7410,1.000198,1.529572,0.529389,1.529572
1.7420,1.000199,1.547734,0.547553,1.547734
1.7430,1.000201,1.547773,0.547553,1.547773
1.7440,1.000204,1.529596,0.529389,1.529596
1.7450,1.000207,1.500196,0.500000,1.500196
1.7460,1.000210,1.470808,0.470611,1.470808
1.7470,1.000213,1.452666,0.452447,1.452666
1.7480,1.000217,1.452677,0.452447,1.452677
1.7490,1.000222,1.470813,0.470611,1.470813
1.7500,1.000226,1.500215,0.500000,1.500215
1.7510,1.000231,1.529638,0.529389,1.529638
1.7520,1.000236,1.547794,0.547553,1.547794
1.7530,1.000242,1.547800,0.547553,1.547800
1.7540,1.000248,1.529651,0.529389,1.529651
1.7550,1.000254,1.500264,0.500000,1.500264
1.7560,1.000261,1.470865,0.470611,1.470865
1.7570,1.000268,1.452748,0.452447,1.452748
1.7580,1.000275,1.452708,0.452447,1.452708
1.7590,1.000282,1.470916,0.470611,1.470916
1.7600,1.000290,1.500274,0.500000,1.500274
1.7610,1.000298,1.529681,0.529389,1.529681
1.7620,1.000307,1.547907,0.547553,1.547907
1.7630,1.000315,1.547878,0.547553,1.547878
1.7640,1.000324,1.529725,0.529389,1.529725
1.7650,1.000333,1.500305,0.500000,1.500305
1.7660,1.000343,1.470977,0.470611,1.470977
1.7670,1.000352,1.452785,0.452447,1.452785
1.7680,1.000362,1.452800,0.452447,1.452800
1.7690,1.000372,1.470984,0.470611,1.470984
1.7700,1.000383,1.500403,0.500000,1.500403
1.7710,1.000394,1.529803,0.529389,1.529803
1.7720,1.000405,1.547995,0.547553,1.547995
1.7730,1.000416,1.547964,0.547553,1.547964
1.7740,1.000427,1.529821,0.529389,1.529821
1.7750,1.000439,1.500452,0.500000,1.500452
1.7760,1.000451,1.471076,0.470611,1.471076
1.7770,1.000463,1.452899,0.452447,1.452899
1.7780,1.000475,1.452930,0.452447,1.452930
1.7790,1.000488,1.471117,0.470611,1.471117
1.7800,1.000500,1.500487,0.500000,1.500487
1.7810,1.000513,1.529916,0.529389,1.529916
1.7820,1.000527,1.548112,0.547553,1.548112
1.7830,1.000540,1.548042,0.547553,1.548042
1.7840,1.000553,1.529972,0.529389,1.529972
1.7850,1.000567,1.500576,0.500000,1.500576
1.7860,1.000581,1.471202,0.470611,1.471202
1.7870,1.000595,1.453030,0.452447,1.453030
1.7880,1.000609,1.453112,0.452447,1.453112
1.7890,1.000624,1.471237,0.470611,1.471237
1.7900,1.000638,1.500610,0.500000,1.500610
1.7910,1.000653,1.530044,0.529389,1.530044
1.7920,1.000668,1.548227,0.547553,1.548227
1.7930,1.000683,1.548237,0.547553,1.548237
1.7940,1.000698,1.530067,0.529389,1.530067
1.7950,1.000713,1.500722,0.500000,1.500722
1.7960,1.000729,1.471330,0.470611,1.471330
1.7970,1.000744,1.453214,0.452447,1.453214
1.7980,1.000760,1.453206,0.452447,1.453206
1.7990,1.000776,1.471375,0.470611,1.471375
1.8000,1.000791,1.500806,0.500000,1.500806
1.8010,1.000807,1.530181,0.529389,1.530181
1.8020,1.000823,1.548328,0.547553,1.548328
1.8030,1.000839,1.548418,0.547553,1.548418
1.8040,1.000855,1.530218,0.529389,1.530218
1.8050,1.000871,1.500851,0.500000,1.500851
1.8060,1.000887,1.471489,0.470611,1.471489
1.8070,1.000903,1.453351,0.452447,1.453351
1.8080,1.000919,1.453392,0.452447,1.453392
1.8090,1.000935,1.471539,0.470611,1.471539
1.8100,1.000951,1.500953,0.500000,1.500953
1.8110,1.000967,1.530346,0.529389,1.530346
1.8120,1.000983,1.548539,0.547553,1.548539
1.8130,1.000999,1.548568,0.547553,1.548568
1.8140,1.001015,1.530416,0.529389,1.530416
1.8150,1.001031,1.501047,0.500000,1.501047
1.8160,1.001047,1.471682,0.470611,1.471682
1.8170,1.001062,1.453518,0.452447,1.453518
1.8180,1.001078,1.453571,0.452447,1.453571
1.8190,1.001093,1.471702,0.470611,1.471702
1.8200,1.001108,1.501109,0.500000,1.501109
1.8210,1.001124,1.530520,0.529389,1.530520
1.8220,1.001139,1.548697,0.547553,1.548697
1.8230,1.001154,1.548700,0.547553,1.548700
1.8240,1.001168,1.530588,0.529389,1.530588
1.8250,1.001183,1.501132,0.500000,1.501132
1.8260,1.001197,1.471778,0.470611,1.471778
1.8270,1.001211,1.453652,0.452447,1.453652
1.8280,1.001225,1.453666,0.452447,1.453666
1.8290,1.001239,1.471857,0.470611,1.471857
1.8300,1.001252,1.501258,0.500000,1.501258
1.8310,1.001265,1.530671,0.529389,1.530671
1.8320,1.001278,1.548852,0.547553,1.548852
1.8330,1.001291,1.548871,0.547553,1.548871
1.8340,1.001303,1.530663,0.529389,1.530663
1.8350,1.001315,1.501310,0.500000,1.501310
1.8360,1.001327,1.471924,0.470611,1.471924
1.8370,1.001338,1.453777,0.452447,1.453777
1.8380,1.001350,1.453803,0.452447,1.453803
1.8390,1.001360,1.471954,0.470611,1.471954
1.8400,1.001371,1.501377,0.500000,1.501377
1.8410,1.001381,1.530786,0.529389,1.530786
1.8420,1.001391,1.548950,0.547553,1.548950
1.8430,1.001400,1.548945,0.547553,1.548945
1.8440,1.001409,1.530791,0.529389,1.530791
1.8450,1.001418,1.501397,0.500000,1.501397
1.8460,1.001426,1.472035,0.470611,1.472035
1.8470,1.001434,1.453857,0.452447,1.453857
1.8480,1.001441,1.453914,0.452447,1.453914
1.8490,1.001448,1.472080,0.470611,1.472080
1.8500,1.001455,1.501466,0.500000,1.501466
1.8510,1.001461,1.530877,0.529389,1.530877
1.8520,1.001467,1.549020,0.547553,1.549020
1.8530,1.001472,1.549011,0.547553,1.549011
1.8540,1.001477,1.530862,0.529389,1.530862
1.8550,1.001481,1.501454,0.500000,1.501454
1.8560,1.001485,1.472101,0.470611,1.472101
1.8570,1.001489,1.453963,0.452447,1.453963
1.8580,1.001492,1.453952,0.452447,1.453952
1.8590,1.001494,1.472084,0.470611,1.472084
1.8600,1.001496,1.501488,0.500000,1.501488
1.8610,1.001498,1.530939,0.529389,1.530939
1.8620,1.001499,1.549082,0.547553,1.549082
1.8630,1.001500,1.549058,0.547553,1.549058
1.8640,1.001500,1.530906,0.529389,1.530906
1.8650,1.001500,1.501505,0.500000,1.501505
1.8660,1.001499,1.472082,0.470611,1.472082
1.8670,1.001498,1.453941,0.452447,1.453941
1.8680,1.001496,1.453975,0.452447,1.453975
1.8690,1.001494,1.472129,0.470611,1.472129
1.8700,1.001492,1.501476,0.500000,1.501476
1.8710,1.001489,1.530863,0.529389,1.530863
1.8720,1.001485,1.549026,0.547553,1.549026
1.8730,1.001481,1.549012,0.547553,1.549012
1.8740,1.001477,1.530852,0.529389,1.530852
1.8750,1.001472,1.501482,0.500000,1.501482
1.8760,1.001467,1.472091,0.470611,1.472091
1.8770,1.001461,1.453936,0.452447,1.453936
1.8780,1.001455,1.453887,0.452447,1.453887
1.8790,1.001448,1.472043,0.470611,1.472043
1.8800,1.001441,1.501470,0.500000,1.501470
1.8810,1.001434,1.530817,0.529389,1.530817
1.8820,1.001426,1.548942,0.547553,1.548942
1.8830,1.001418,1.548942,0.547553,1.548942
1.8840,1.001409,1.530785,0.529389,1.530785
1.8850,1.001400,1.501397,0.500000,1.501397
1.8860,1.001391,1.472026,0.470611,1.472026
1.8870,1.001381,1.453818,0.452447,1.453818
1.8880,1.001371,1.453855,0.452447,1.453855
1.8890,1.001360,1.471969,0.470611,1.471969
1.8900,1.001350,1.501365,0.500000,1.501365
1.8910,1.001338,1.530742,0.529389,1.530742
1.8920,1.001327,1.548848,0.547553,1.548848
1.8930,1.001315,1.548832,0.547553,1.548832
1.8940,1.001303,1.530659,0.529389,1.530659
1.8950,1.001291,1.501253,0.500000,1.501253
1.8960,1.001278,1.471903,0.470611,1.471903
1.8970,1.001265,1.453712,0.452447,1.453712
1.8980,1.001252,1.453699,0.452447,1.453699
1.8990,1.001239,1.471852,0.470611,1.471852
1.9000,1.001225,1.501187,0.500000,1.501187
1.9010,1.001211,1.530599,0.529389,1.530599
1.9020,1.001197,1.548763,0.547553,1.548763
1.9030,1.001183,1.548734,0.547553,1.548734
1.9040,1.001168,1.530574,0.529389,1.530574
1.9050,1.001153,1.501167,0.500000,1.501167
1.9060,1.001139,1.471738,0.470611,1.471738
1.9070,1.001124,1.453571,0.452447,1.453571
1.9080,1.001108,1.453538,0.452447,1.453538
1.9090,1.001093,1.471699,0.470611,1.471699
1.9100,1.001078,1.501114,0.500000,1.501114
1.9110,1.001062,1.530470,0.529389,1.530470
1.9120,1.001046,1.548610,0.547553,1.548610
1.9130,1.001031,1.548597,0.547553,1.548597
1.9140,1.001015,1.530400,0.529389,1.530400
1.9150,1.000999,1.500987,0.500000,1.500987
1.9160,1.000983,1.471626,0.470611,1.471626
1.9170,1.000967,1.453463,0.452447,1.453463
1.9180,1.000951,1.453379,0.452447,1.453379
1.9190,1.000935,1.471540,0.470611,1.471540
1.9200,1.000919,1.500928,0.500000,1.500928
1.9210,1.000903,1.530298,0.529389,1.530298
1.9220,1.000887,1.548458,0.547553,1.548458
1.9230,1.000871,1.548464,0.547553,1.548464
1.9240,1.000855,1.530213,0.529389,1.530213
1.9250,1.000839,1.500863,0.500000,1.500863
1.9260,1.000823,1.471450,0.470611,1.471450
1.9270,1.000807,1.453257,0.452447,1.453257
1.9280,1.000791,1.453254,0.452447,1.453254
1.9290,1.000775,1.471366,0.470611,1.471366
1.9300,1.000759,1.500745,0.500000,1.500745
1.9310,1.000744,1.530106,0.529389,1.530106
1.9320,1.000728,1.548273,0.547553,1.548273
1.9330,1.000713,1.548294,0.547553,1.548294
1.9340,1.000698,1.530051,0.529389,1.530051
1.9350,1.000682,1.500667,0.500000,1.500667
1.9360,1.000667,1.471282,0.470611,1.471282
1.9370,1.000652,1.453099,0.452447,1.453099
1.9380,1.000638,1.453084,0.452447,1.453084
1.9390,1.000623,1.471248,0.470611,1.471248
1.9400,1.000608,1.500623,0.500000,1.500623
1.9410,1.000594,1.530002,0.529389,1.530002
1.9420,1.000580,1.548112,0.547553,1.548112
1.9430,1.000566,1.548128,0.547553,1.548128
1.9440,1.000552,1.529930,0.529389,1.529930
1.9450,1.000538,1.500555,0.500000,1.500555
1.9460,1.000525,1.471150,0.470611,1.471150
1.9470,1.000511,1.452921,0.452447,1.452921
1.9480,1.000498,1.452911,0.452447,1.452911
1.9490,1.000485,1.471076,0.470611,1.471076
1.9500,1.000472,1.500442,0.500000,1.500442
1.9510,1.000460,1.529854,0.529389,1.529854
1.9520,1.000447,1.547976,0.547553,1.547976
1.9530,1.000435,1.547995,0.547553,1.547995
1.9540,1.000423,1.529792,0.529389,1.529792
1.9550,1.000411,1.500408,0.500000,1.500408
1.9560,1.000400,1.471013,0.470611,1.471013
1.9570,1.000388,1.452832,0.452447,1.452832
1.9580,1.000377,1.452844,0.452447,1.452844
1.9590,1.000366,1.470974,0.470611,1.470974
1.9600,1.000355,1.500386,0.500000,1.500386
1.9610,1.000345,1.529715,0.529389,1.529715
1.9620,1.000334,1.547880,0.547553,1.547880
1.9630,1.000324,1.547845,0.547553,1.547845
1.9640,1.000314,1.529735,0.529389,1.529735
1.9650,1.000305,1.500293,0.500000,1.500293
1.9660,1.000295,1.470868,0.470611,1.470868
1.9670,1.000286,1.452719,0.452447,1.452719
1.9680,1.000277,1.452716,0.452447,1.452716
1.9690,1.000268,1.470897,0.470611,1.470897
1.9700,1.000259,1.500281,0.500000,1.500281
1.9710,1.000251,1.529630,0.529389,1.529630
1.9720,1.000242,1.547797,0.547553,1.547797
1.9730,1.000234,1.547797,0.547553,1.547797
1.9740,1.000226,1.529607,0.529389,1.529607
1.9750,1.000219,1.500216,0.500000,1.500216
1.9760,1.000211,1.470823,0.470611,1.470823
1.9770,1.000204,1.452632,0.452447,1.452632
1.9780,1.000197,1.452632,0.452447,1.452632
1.9790,1.000190,1.470814,0.470611,1.470814
1.9800,1.000183,1.500170,0.500000,1.500170
1.9810,1.000177,1.529581,0.529389,1.529581
1.9820,1.000170,1.547688,0.547553,1.547688
1.9830,1.000164,1.547740,0.547553,1.547740
1.9840,1.000158,1.529560,0.529389,1.529560
1.9850,1.000152,1.500091,0.500000,1.500091
1.9860,1.000147,1.470743,0.470611,1.470743
1.9870,1.000141,1.452571,0.452447,1.452571
1.9880,1.000136,1.452577,0.452447,1.452577
1.9890,1.000131,1.470725,0.470611,1.470725
1.9900,1.000126,1.500119,0.500000,1.500119
1.9910,1.000121,1.529542,0.529389,1.529542
1.9920,1.000116,1.547686,0.547553,1.547686
1.9930,1.000111,1.547673,0.547553,1.547673
1.9940,1.000107,1.529494,0.529389,1.529494
1.9950,1.000103,1.500091,0.500000,1.500091
1.9960,1.000099,1.470680,0.470611,1.470680
1.9970,1.000095,1.452538,0.452447,1.452538
1.9980,1.000091,1.452525,0.452447,1.452525
1.9990,1.000087,1.470707,0.470611,1.470707
2.0000,1.000083,1.500090,0.500000,1.500090
2.0010,1.000080,1.529450,0.529389,1.529450
2.0020,1.000077,1.547584,0.547553,1.547584
2.0030,1.000073,1.547639,0.547553,1.547639
2.0040,1.000070,1.529470,0.529389,1.529470
2.0050,1.000067,1.500025,0.500000,1.500025
2.0060,1.000064,1.470684,0.470611,1.470684
2.0070,1.000061,1.452501,0.452447,1.452501
2.0080,1.000059,1.452539,0.452447,1.452539
2.0090,1.000056,1.470695,0.470611,1.470695
2.0100,1.000054,1.500066,0.500000,1.500066
2.0110,1.000051,1.529482,0.529389,1.529482
2.0120,1.000049,1.547589,0.547553,1.547589
2.0130,1.000047,1.547615,0.547553,1.547615
2.0140,1.000045,1.529474,0.529389,1.529474
2.0150,1.000043,1.500048,0.500000,1.500048
2.0160,1.000041,1.470613,0.470611,1.470613
2.0170,1.000039,1.452523,0.452447,1.452523
2.0180,1.000037,1.452496,0.452447,1.452496
2.0190,1.000035,1.470656,0.470611,1.470656
2.0200,1.000033,1.500027,0.500000,1.500027
2.0210,1.000032,1.529427,0.529389,1.529427
2.0220,1.000030,1.547571,0.547553,1.547571
2.0230,1.000029,1.547609,0.547553,1.547609
2.0240,1.000027,1.529407,0.529389,1.529407
2.0250,1.000026,1.500040,0.500000,1.500040
2.0260,1.000025,1.470645,0.470611,1.470645
2.0270,1.000024,1.452502,0.452447,1.452502
2.0280,1.000022,1.452447,0.452447,1.452447
2.0290,1.000021,1.470619,0.470611,1.470619
2.0300,1.000020,1.500040,0.500000,1.500040
2.0310,1.000019,1.529408,0.529389,1.529408
2.0320,1.000018,1.547538,0.547553,1.547538
2.0330,1.000017,1.547575,0.547553,1.547575
2.0340,1.000016,1.529424,0.529389,1.529424
2.0350,1.000016,1.500042,0.500000,1.500042
2.0360,1.000015,1.470614,0.470611,1.470614
2.0370,1.000014,1.452474,0.452447,1.452474
2.0380,1.000013,1.452449,0.452447,1.452449
2.0390,1.000013,1.470648,0.470611,1.470648
2.0400,1.000012,1.500002,0.500000,1.500002
2.0410,1.000011,1.529410,0.529389,1.529410
2.0420,1.000011,1.547565,0.547553,1.547565
2.0430,1.000010,1.547542,0.547553,1.547542
2.0440,1.000009,1.529401,0.529389,1.529401
2.0450,1.000009,1.500019,0.500000,1.500019
2.0460,1.000008,1.470563,0.470611,1.470563
2.0470,1.000008,1.452448,0.452447,1.452448
2.0480,1.000008,1.452442,0.452447,1.452442
2.0490,1.000007,1.470585,0.470611,1.470585
2.0500,1.000007,1.500005,0.500000,1.500005
2.0510,1.000006,1.529413,0.529389,1.529413
2.0520,1.000006,1.547567,0.547553,1.547567
2.0530,1.000006,1.547560,0.547553,1.547560
2.0540,1.000005,1.529388,0.529389,1.529388
2.0550,1.000005,1.499987,0.500000,1.499987
2.0560,1.000005,1.470625,0.470611,1.470625
2.0570,1.000004,1.452453,0.452447,1.452453
2.0580,1.000004,1.452412,0.452447,1.452412
2.0590,1.000004,1.470638,0.470611,1.470638
2.0600,1.000004,1.500043,0.500000,1.500043
2.0610,1.000003,1.529345,0.529389,1.529345
2.0620,1.000003,1.547543,0.547553,1.547543
2.0630,1.000003,1.547548,0.547553,1.547548
2.0640,1.000003,1.529400,0.529389,1.529400
2.0650,1.000003,1.499977,0.500000,1.499977
2.0660,1.000003,1.470648,0.470611,1.470648
2.0670,1.000002,1.452458,0.452447,1.452458
2.0680,1.000002,1.452446,0.452447,1.452446
2.0690,1.000002,1.470645,0.470611,1.470645
2.0700,1.000002,1.500000,0.500000,1.500000
2.0710,1.000002,1.529401,0.529389,1.529401
2.0720,1.000002,1.547563,0.547553,1.547563
2.0730,1.000002,1.547589,0.547553,1.547589
2.0740,1.000002,1.529377,0.529389,1.529377
2.0750,1.000001,1.500039,0.500000,1.500039
2.0760,1.000001,1.470599,0.470611,1.470599
2.0770,1.000001,1.452451,0.452447,1.452451
2.0780,1.000001,1.452463,0.452447,1.452463
2.0790,1.000001,1.470602,0.470611,1.470602
2.0800,1.000001,1.499991,0.500000,1.499991
2.0810,1.000001,1.529403,0.529389,1.529403
2.0820,1.000001,1.547553,0.547553,1.547553
2.0830,1.000001,1.547565,0.547553,1.547565
2.0840,1.000001,1.529410,0.529389,1.529410
2.0850,1.000001,1.500019,0.500000,1.500019
2.0860,1.000001,1.470597,0.470611,1.470597
2.0870,1.000001,1.452458,0.452447,1.452458
2.0880,1.000001,1.452467,0.452447,1.452467
2.0890,1.000001,1.470588,0.470611,1.470588
2.0900,1.000001,1.499991,0.500000,1.499991
2.0910,1.000000,1.529408,0.529389,1.529408
2.0920,1.000000,1.547565,0.547553,1.547565
2.0930,1.000000,1.547539,0.547553,1.547539
2.0940,1.000000,1.529406,0.529389,1.529406
2.0950,1.000000,1.500001,0.500000,1.500001
2.0960,1.000000,1.470641,0.470611,1.470641
2.0970,1.000000,1.452481,0.452447,1.452481
2.0980,1.000000,1.452465,0.452447,1.452465
2.0990,1.000000,1.470603,0.470611,1.470603
2.1000,1.000000,1.500009,0.500000,1.500009
2.1010,1.000000,1.529373,0.529389,1.529373
2.1020,1.000000,1.547534,0.547553,1.547534
2.1030,1.000000,1.547600,0.547553,1.547600
2.1040,1.000000,1.529385,0.529389,1.529385
2.1050,1.000000,1.500014,0.500000,1.500014
2.1060,1.000000,1.470624,0.470611,1.470624
2.1070,1.000000,1.452447,0.452447,1.452447
2.1080,1.000000,1.452451,0.452447,1.452451
2.1090,1.000000,1.470661,0.470611,1.470661
2.1100,1.000000,1.500040,0.500000,1.500040
2.1110,1.000000,1.529381,0.529389,1.529381
2.1120,1.000000,1.547559,0.547553,1.547559
2.1130,1.000000,1.547549,0.547553,1.547549
2.1140,1.000000,1.529370,0.529389,1.529370
2.1150,1.000000,1.499986,0.500000,1.499986
2.1160,1.000000,1.470614,0.470611,1.470614
2.1170,1.000000,1.452428,0.452447,1.452428
2.1180,1.000000,1.452447,0.452447,1.452447
2.1190,1.000000,1.470594,0.470611,1.470594
2.1200,1.000000,1.499977,0.500000,1.499977
2.1210,1.000000,1.529363,0.529389,1.529363
2.1220,1.000000,1.547555,0.547553,1.547555
2.1230,1.000000,1.547537,0.547553,1.547537
2.1240,1.000000,1.529384,0.529389,1.529384
2.1250,1.000000,1.499986,0.500000,1.499986
2.1260,1.000000,1.470606,0.470611,1.470606
2.1270,1.000000,1.452469,0.452447,1.452469
2.1280,1.000000,1.452437,0.452447,1.452437
2.1290,1.000000,1.470577,0.470611,1.470577
2.1300,1.000000,1.500015,0.500000,1.500015
2.1310,1.000000,1.529351,0.529389,1.529351
2.1320,1.000000,1.547564,0.547553,1.547564
2.1330,1.000000,1.547606,0.547553,1.547606
2.1340,1.000000,1.529386,0.529389,1.529386
2.1350,1.000000,1.499952,0.500000,1.499952
2.1360,1.000000,1.470610,0.470611,1.470610
2.1370,1.000000,1.452455,0.452447,1.452455
2.1380,1.000000,1.452442,0.452447,1.452442
2.1390,1.000000,1.470570,0.470611,1.470570
2.1400,1.000000,1.499978,0.500000,1.499978
2.1410,1.000000,1.529422,0.529389,1.529422
2.1420,1.000000,1.547559,0.547553,1.547559
2.1430,1.000000,1.547603,0.547553,1.547603
2.1440,1.000000,1.529359,0.529389,1.529359
2.1450,1.000000,1.499963,0.500000,1.499963
2.1460,1.000000,1.470601,0.470611,1.470601
2.1470,1.000000,1.452472,0.452447,1.452472
2.1480,1.000000,1.452423,0.452447,1.452423
2.1490,1.000000,1.470634,0.470611,1.470634
2.1500,1.000000,1.500006,0.500000,1.500006
2.1510,1.000000,1.529377,0.529389,1.529377
2.1520,1.000000,1.547550,0.547553,1.547550
2.1530,1.000000,1.547568,0.547553,1.547568
2.1540,1.000000,1.529399,0.529389,1.529399
2.1550,1.000000,1.500017,0.500000,1.500017
2.1560,1.000000,1.470608,0.470611,1.470608
2.1570,1.000000,1.452450,0.452447,1.452450
2.1580,1.000000,1.452442,0.452447,1.452442
2.1590,1.000000,1.470577,0.470611,1.470577
2.1600,1.000000,1.499969,0.500000,1.499969
2.1610,1.000000,1.529351,0.529389,1.529351
2.1620,1.000000,1.547566,0.547553,1.547566
2.1630,1.000000,1.547534,0.547553,1.547534
2.1640,1.000000,1.529420,0.529389,1.529420
2.1650,1.000000,1.499980,0.500000,1.499980
2.1660,1.000000,1.470613,0.470611,1.470613
2.1670,1.000000,1.452449,0.452447,1.452449
2.1680,1.000000,1.452492,0.452447,1.452492
2.1690,1.000000,1.470607,0.470611,1.470607
2.1700,1.000000,1.499984,0.500000,1.499984
2.1710,1.000000,1.529440,0.529389,1.529440
2.1720,1.000000,1.547520,0.547553,1.547520
2.1730,1.000000,1.547549,0.547553,1.547549
2.1740,1.000000,1.529367,0.529389,1.529367
2.1750,1.000000,1.500004,0.500000,1.500004
2.1760,1.000000,1.470613,0.470611,1.470613
2.1770,1.000000,1.452415,0.452447,1.452415
2.1780,1.000000,1.452463,0.452447,1.452463
2.1790,1.000000,1.470618,0.470611,1.470618
2.1800,1.000000,1.500007,0.500000,1.500007
2.1810,1.000000,1.529382,0.529389,1.529382
2.1820,1.000000,1.547582,0.547553,1.547582
2.1830,1.000000,1.547531,0.547553,1.547531
2.1840,1.000000,1.529389,0.529389,1.529389
2.1850,1.000000,1.499998,0.500000,1.499998
2.1860,1.000000,1.470611,0.470611,1.470611
2.1870,1.000000,1.452467,0.452447,1.452467
2.1880,1.000000,1.452465,0.452447,1.452465
2.1890,1.000000,1.470613,0.470611,1.470613
2.1900,1.000000,1.500032,0.500000,1.500032
2.1910,1.000000,1.529389,0.529389,1.529389
2.1920,1.000000,1.547515,0.547553,1.547515
2.1930,1.000000,1.547551,0.547553,1.547551
2.1940,1.000000,1.529414,0.529389,1.529414
2.1950,1.000000,1.500013,0.500000,1.500013
2.1960,1.000000,1.470610,0.470611,1.470610
2.1970,1.000000,1.452416,0.452447,1.452416
2.1980,1.000000,1.452451,0.452447,1.452451
2.1990,1.000000,1.470591,0.470611,1.470591
2.2000,1.000000,1.500000,0.500000,1.500000
2.2010,1.000000,1.529384,0.529389,1.529384
2.2020,1.000000,1.547558,0.547553,1.547558
2.2030,1.000000,1.547543,0.547553,1.547543
2.2040,1.000000,1.529429,0.529389,1.529429
2.2050,1.000000,1.499999,0.500000,1.499999
2.2060,1.000000,1.470621,0.470611,1.470621
2.2070,1.000000,1.452459,0.452447,1.452459
2.2080,1.000000,1.452483,0.452447,1.452483
2.2090,1.000000,1.470611,0.470611,1.470611
2.2100,1.000000,1.499957,0.500000,1.499957
2.2110,1.000000,1.529367,0.529389,1.529367
2.2120,1.000000,1.547573,0.547553,1.547573
2.2130,1.000000,1.547562,0.547553,1.547562
2.2140,1.000000,1.529428,0.529389,1.529428
2.2150,1.000000,1.500005,0.500000,1.500005
2.2160,1.000000,1.470621,0.470611,1.470621
2.2170,1.000000,1.452468,0.452447,1.452468
2.2180,1.000000,1.452420,0.452447,1.452420
2.2190,1.000000,1.470641,0.470611,1.470641
2.2200,1.000000,1.500036,0.500000,1.500036
2.2210,1.000000,1.529355,0.529389,1.529355
2.2220,1.000000,1.547587,0.547553,1.547587
2.2230,1.000000,1.547560,0.547553,1.547560
2.2240,1.000000,1.529385,0.529389,1.529385
2.2250,1.000000,1.499956,0.500000,1.499956
2.2260,1.000000,1.470610,0.470611,1.470610
2.2270,1.000000,1.452427,0.452447,1.452427
2.2280,1.000000,1.452427,0.452447,1.452427
2.2290,1.000000,1.470622,0.470611,1.470622
2.2300,1.000000,1.500021,0.500000,1.500021
2.2310,1.000000,1.529358,0.529389,1.529358
2.2320,1.000000,1.547560,0.547553,1.547560
2.2330,1.000000,1.547548,0.547553,1.547548
2.2340,1.000000,1.529400,0.529389,1.529400
2.2350,1.000000,1.500013,0.500000,1.500013
2.2360,1.000000,1.470586,0.470611,1.470586
2.2370,1.000000,1.452418,0.452447,1.452418
2.2380,1.000000,1.452415,0.452447,1.452415
2.2390,1.000000,1.470603,0.470611,1.470603
2.2400,1.000000,1.500023,0.500000,1.500023
2.2410,1.000000,1.529391,0.529389,1.529391
2.2420,1.000000,1.547551,0.547553,1.547551
2.2430,1.000000,1.547535,0.547553,1.547535
2.2440,1.000000,1.529398,0.529389,1.529398
2.2450,1.000000,1.499977,0.500000,1.499977
2.2460,1.000000,1.470587,0.470611,1.470587
2.2470,1.000000,1.452444,0.452447,1.452444
2.2480,1.000000,1.452443,0.452447,1.452443
2.2490,1.000000,1.470616,0.470611,1.470616
2.2500,1.000000,1.500020,0.500000,1.500020
2.2510,1.000000,1.529382,0.529389,1.529382
2.2520,1.000000,1.547594,0.547553,1.547594
2.2530,1.000000,1.547560,0.547553,1.547560
2.2540,1.000000,1.529392,0.529389,1.529392
2.2550,1.000000,1.499983,0.500000,1.499983
2.2560,1.000000,1.470622,0.470611,1.470622
2.2570,1.000000,1.452440,0.452447,1.452440
2.2580,1.000000,1.452424,0.452447,1.452424
2.2590,1.000000,1.470622,0.470611,1.470622
2.2600,1.000000,1.499984,0.500000,1.499984
2.2610,1.000000,1.529387,0.529389,1.529387
2.2620,1.000000,1.547549,0.547553,1.547549
2.2630,1.000000,1.547587,0.547553,1.547587
2.2640,1.000000,1.529387,0.529389,1.529387
2.2650,1.000000,1.499991,0.500000,1.499991
2.2660,1.000000,1.470616,0.470611,1.470616
2.2670,1.000000,1.452417,0.452447,1.452417
2.2680,1.000000,1.452462,0.452447,1.452462
2.2690,1.000000,1.470615,0.470611,1.470615
2.2700,1.000000,1.499993,0.500000,1.499993
2.2710,1.000000,1.529348,0.529389,1.529348
2.2720,1.000000,1.547525,0.547553,1.547525
2.2730,1.000000,1.547531,0.547553,1.547531
2.2740,1.000000,1.529404,0.529389,1.529404
2.2750,1.000311,1.500312,0.500000,1.500312
2.2760,1.000329,1.470950,0.470611,1.470950
2.2770,1.000347,1.452831,0.452447,1.452831
2.2780,1.000366,1.452798,0.452447,1.452798
2.2790,1.000387,1.470967,0.470611,1.470967
2.2800,1.000408,1.500431,0.500000,1.500431
2.2810,1.000430,1.529822,0.529389,1.529822
2.2820,1.000452,1.548041,0.547553,1.548041
2.2830,1.000476,1.548019,0.547553,1.548019
2.2840,1.000501,1.529892,0.529389,1.529892
2.2850,1.000527,1.500577,0.500000,1.500577
2.2860,1.000554,1.471176,0.470611,1.471176
2.2870,1.000582,1.453064,0.452447,1.453064
2.2880,1.000611,1.453059,0.452447,1.453059
2.2890,1.000641,1.471272,0.470611,1.471272
2.2900,1.000672,1.500676,0.500000,1.500676
2.2910,1.000704,1.530083,0.529389,1.530083
2.2920,1.000738,1.548296,0.547553,1.548296
2.2930,1.000772,1.548288,0.547553,1.548288
2.2940,1.000808,1.530182,0.529389,1.530182
2.2950,1.000845,1.500819,0.500000,1.500819
2.2960,1.000883,1.471486,0.470611,1.471486
2.2970,1.000923,1.453375,0.452447,1.453375
2.2980,1.000963,1.453434,0.452447,1.453434
2.2990,1.001005,1.471659,0.470611,1.471659
2.3000,1.001048,1.501051,0.500000,1.501051
2.3010,1.001092,1.530466,0.529389,1.530466
2.3020,1.001138,1.548678,0.547553,1.548678
2.3030,1.001185,1.548719,0.547553,1.548719
2.3040,1.001233,1.530678,0.529389,1.530678
2.3050,1.001282,1.501292,0.500000,1.501292
2.3060,1.001332,1.471961,0.470611,1.471961
2.3070,1.001384,1.453802,0.452447,1.453802
2.3080,1.001437,1.453879,0.452447,1.453879
2.3090,1.001491,1.472066,0.470611,1.472066
2.3100,1.001546,1.501546,0.500000,1.501546
2.3110,1.001603,1.531015,0.529389,1.531015
2.3120,1.001660,1.549222,0.547553,1.549222
2.3130,1.001719,1.549296,0.547553,1.549296
2.3140,1.001779,1.531202,0.529389,1.531202
2.3150,1.001839,1.501835,0.500000,1.501835
2.3160,1.001901,1.472475,0.470611,1.472475
2.3170,1.001964,1.454409,0.452447,1.454409
2.3180,1.002028,1.454503,0.452447,1.454503
2.3190,1.002092,1.472692,0.470611,1.472692
2.3200,1.002158,1.502168,0.500000,1.502168
2.3210,1.002224,1.531666,0.529389,1.531666
2.3220,1.002291,1.549872,0.547553,1.549872
2.3230,1.002359,1.549896,0.547553,1.549896
2.3240,1.002428,1.531832,0.529389,1.531832
2.3250,1.002497,1.502532,0.500000,1.502532
2.3260,1.002566,1.473182,0.470611,1.473182
2.3270,1.002636,1.455107,0.452447,1.455107
2.3280,1.002707,1.455190,0.452447,1.455190
2.3290,1.002778,1.473396,0.470611,1.473396
2.3300,1.002849,1.502860,0.500000,1.502860
2.3310,1.002920,1.532302,0.529389,1.532302
2.3320,1.002992,1.550528,0.547553,1.550528
2.3330,1.003063,1.550593,0.547553,1.550593
2.3340,1.003135,1.532541,0.529389,1.532541
2.3350,1.003206,1.503210,0.500000,1.503210
2.3360,1.003277,1.473845,0.470611,1.473845
2.3370,1.003348,1.455825,0.452447,1.455825
2.3380,1.003418,1.455843,0.452447,1.455843
2.3390,1.003488,1.474113,0.470611,1.474113
2.3400,1.003558,1.503552,0.500000,1.503552
2.3410,1.003627,1.533014,0.529389,1.533014
2.3420,1.003695,1.551255,0.547553,1.551255
2.3430,1.003762,1.551330,0.547553,1.551330
2.3440,1.003829,1.533227,0.529389,1.533227
2.3450,1.003894,1.503839,0.500000,1.503839
2.3460,1.003958,1.474575,0.470611,1.474575
2.3470,1.004021,1.456504,0.452447,1.456504
2.3480,1.004083,1.456557,0.452447,1.456557
2.3490,1.004144,1.474742,0.470611,1.474742
2.3500,1.004203,1.504221,0.500000,1.504221
2.3510,1.004261,1.533651,0.529389,1.533651
2.3520,1.004317,1.551895,0.547553,1.551895
2.3530,1.004371,1.551887,0.547553,1.551887
2.3540,1.004423,1.533843,0.529389,1.533843
2.3550,1.004474,1.504469,0.500000,1.504469
2.3560,1.004523,1.475129,0.470611,1.475129
2.3570,1.004570,1.456998,0.452447,1.456998
2.3580,1.004614,1.457095,0.452447,1.457095
2.3590,1.004657,1.475285,0.470611,1.475285
2.3600,1.004697,1.504732,0.500000,1.504732
2.3610,1.004735,1.534150,0.529389,1.534150
2.3620,1.004771,1.552318,0.547553,1.552318
2.3630,1.004804,1.552357,0.547553,1.552357
2.3640,1.004835,1.534195,0.529389,1.534195
2.3650,1.004863,1.504865,0.500000,1.504865
2.3660,1.004889,1.475497,0.470611,1.475497
2.3670,1.004912,1.457364,0.452447,1.457364
2.3680,1.004932,1.457370,0.452447,1.457370
2.3690,1.004950,1.475562,0.470611,1.475562
2.3700,1.004965,1.504958,0.500000,1.504958
2.3710,1.004978,1.534357,0.529389,1.534357
2.3720,1.004987,1.552535,0.547553,1.552535
2.3730,1.004994,1.552532,0.547553,1.552532
2.3740,1.004999,1.534351,0.529389,1.534351
2.3750,1.005000,1.505021,0.500000,1.505021
2.3760,1.004999,1.475596,0.470611,1.475596
2.3770,1.004994,1.457404,0.452447,1.457404
2.3780,1.004988,1.457457,0.452447,1.457457
2.3790,1.004978,1.475608,0.470611,1.475608
2.3800,1.004965,1.504960,0.500000,1.504960
2.3810,1.004950,1.534331,0.529389,1.534331
2.3820,1.004932,1.552502,0.547553,1.552502
2.3830,1.004912,1.552497,0.547553,1.552497
2.3840,1.004889,1.534260,0.529389,1.534260
2.3850,1.004863,1.504860,0.500000,1.504860
2.3860,1.004835,1.475429,0.470611,1.475429
2.3870,1.004804,1.457276,0.452447,1.457276
2.3880,1.004771,1.457248,0.452447,1.457248
2.3890,1.004735,1.475318,0.470611,1.475318
2.3900,1.004697,1.504662,0.500000,1.504662
2.3910,1.004657,1.534070,0.529389,1.534070
2.3920,1.004615,1.552182,0.547553,1.552182
2.3930,1.004570,1.552109,0.547553,1.552109
2.3940,1.004523,1.533900,0.529389,1.533900
2.3950,1.004475,1.504523,0.500000,1.504523
2.3960,1.004424,1.475058,0.470611,1.475058
2.3970,1.004371,1.456792,0.452447,1.456792
2.3980,1.004317,1.456737,0.452447,1.456737
2.3990,1.004261,1.474890,0.470611,1.474890
2.4000,1.004204,1.504198,0.500000,1.504198
2.4010,1.004145,1.533537,0.529389,1.533537
2.4020,1.004084,1.551602,0.547553,1.551602
2.4030,1.004022,1.551600,0.547553,1.551600
2.4040,1.003959,1.533347,0.529389,1.533347
2.4050,1.003895,1.503886,0.500000,1.503886
2.4060,1.003829,1.474440,0.470611,1.474440
2.4070,1.003763,1.456203,0.452447,1.456203
2.4080,1.003696,1.456125,0.452447,1.456125
2.4090,1.003628,1.474189,0.470611,1.474189
2.4100,1.003559,1.503552,0.500000,1.503552
2.4110,1.003489,1.532917,0.529389,1.532917
2.4120,1.003420,1.550953,0.547553,1.550953
2.4130,1.003349,1.550947,0.547553,1.550947
2.4140,1.003278,1.532670,0.529389,1.532670
2.4150,1.003207,1.503188,0.500000,1.503188
2.4160,1.003136,1.473715,0.470611,1.473715
2.4170,1.003065,1.455510,0.452447,1.455510
2.4180,1.002993,1.455437,0.452447,1.455437
2.4190,1.002922,1.473526,0.470611,1.473526
2.4200,1.002851,1.502844,0.500000,1.502844
2.4210,1.002780,1.532160,0.529389,1.532160
2.4220,1.002709,1.550278,0.547553,1.550278
2.4230,1.002639,1.550198,0.547553,1.550198
2.4240,1.002569,1.531975,0.529389,1.531975
2.4250,1.002500,1.502466,0.500000,1.502466
2.4260,1.002431,1.473008,0.470611,1.473008
2.4270,1.002362,1.454809,0.452447,1.454809
2.4280,1.002295,1.454750,0.452447,1.454750
2.4290,1.002228,1.472838,0.470611,1.472838
2.4300,1.002162,1.502166,0.500000,1.502166
2.4310,1.002097,1.531473,0.529389,1.531473
2.4320,1.002032,1.549569,0.547553,1.549569
2.4330,1.001969,1.549497,0.547553,1.549497
2.4340,1.001906,1.531295,0.529389,1.531295
2.4350,1.001845,1.501853,0.500000,1.501853
2.4360,1.001784,1.472412,0.470611,1.472412
2.4370,1.001725,1.454183,0.452447,1.454183
2.4380,1.001667,1.454071,0.452447,1.454071
2.4390,1.001609,1.472229,0.470611,1.472229
2.4400,1.001553,1.501572,0.500000,1.501572
2.4410,1.001499,1.530907,0.529389,1.530907
2.4420,1.001445,1.548998,0.547553,1.548998
2.4430,1.001392,1.548962,0.547553,1.548962
2.4440,1.001341,1.530697,0.529389,1.530697
2.4450,1.001291,1.501272,0.500000,1.501272
2.4460,1.001243,1.471833,0.470611,1.471833
2.4470,1.001195,1.453620,0.452447,1.453620
2.4480,1.001149,1.453591,0.452447,1.453591
2.4490,1.001104,1.471739,0.470611,1.471739
2.4500,1.001061,1.501006,0.500000,1.501006
2.4510,1.001018,1.530362,0.529389,1.530362
2.4520,1.000977,1.548591,0.547553,1.548591
2.4530,1.000937,1.548537,0.547553,1.548537
2.4540,1.000899,1.530315,0.529389,1.530315
2.4550,1.000861,1.500876,0.500000,1.500876
2.4560,1.000825,1.471450,0.470611,1.471450
2.4570,1.000791,1.453284,0.452447,1.453284
2.4580,1.000757,1.453216,0.452447,1.453216
2.4590,1.000725,1.471346,0.470611,1.471346
2.4600,1.000693,1.500684,0.500000,1.500684
2.4610,1.000663,1.530069,0.529389,1.530069
2.4620,1.000634,1.548145,0.547553,1.548145
2.4630,1.000607,1.548162,0.547553,1.548162
2.4640,1.000580,1.529982,0.529389,1.529982
2.4650,1.000554,1.500588,0.500000,1.500588
2.4660,1.000530,1.471106,0.470611,1.471106
2.4670,1.000507,1.452982,0.452447,1.452982
2.4680,1.000484,1.452929,0.452447,1.452929
2.4690,1.000463,1.471134,0.470611,1.471134
2.4700,1.000443,1.500421,0.500000,1.500421
2.4710,1.000423,1.529822,0.529389,1.529822
2.4720,1.000405,1.547974,0.547553,1.547974
2.4730,1.000388,1.547979,0.547553,1.547979
2.4740,1.000371,1.529785,0.529389,1.529785
2.4750,1.000355,1.500392,0.500000,1.500392
2.4760,1.000341,1.470917,0.470611,1.470917
2.4770,1.000327,1.452793,0.452447,1.452793
2.4780,1.000314,1.452747,0.452447,1.452747
2.4790,1.000301,1.470925,0.470611,1.470925
2.4800,1.000290,1.500306,0.500000,1.500306
2.4810,1.000279,1.529678,0.529389,1.529678
2.4820,1.000269,1.547827,0.547553,1.547827
2.4830,1.000260,1.547816,0.547553,1.547816
2.4840,1.000252,1.529636,0.529389,1.529636
2.4850,1.000244,1.500231,0.500000,1.500231
2.4860,1.000236,1.470837,0.470611,1.470837
2.4870,1.000230,1.452678,0.452447,1.452678
2.4880,1.000224,1.452705,0.452447,1.452705
2.4890,1.000219,1.470814,0.470611,1.470814
2.4900,1.000214,1.500218,0.500000,1.500218
2.4910,1.000210,1.529560,0.529389,1.529560
2.4920,1.000206,1.547780,0.547553,1.547780
2.4930,1.000203,1.547734,0.547553,1.547734
2.4940,1.000201,1.529555,0.529389,1.529555
2.4950,1.000199,1.500222,0.500000,1.500222
2.4960,1.000197,1.470820,0.470611,1.470820
2.4970,1.000196,1.452647,0.452447,1.452647
2.4980,1.000195,1.452640,0.452447,1.452640
2.4990,1.000195,1.470772,0.470611,1.470772
2.5000,1.000196,1.500221,0.500000,1.500221
2.5010,1.000197,1.529600,0.529389,1.529600
2.5020,1.000198,1.547745,0.547553,1.547745
2.5030,1.000199,1.547739,0.547553,1.547739
2.5040,1.000201,1.529601,0.529389,1.529601
2.5050,1.000204,1.500220,0.500000,1.500220
2.5060,1.000207,1.470839,0.470611,1.470839
2.5070,1.000210,1.452659,0.452447,1.452659
2.5080,1.000213,1.452684,0.452447,1.452684
2.5090,1.000217,1.470834,0.470611,1.470834
2.5100,1.000222,1.500203,0.500000,1.500203
2.5110,1.000226,1.529622,0.529389,1.529622
2.5120,1.000231,1.547780,0.547553,1.547780
2.5130,1.000236,1.547788,0.547553,1.547788
2.5140,1.000242,1.529619,0.529389,1.529619
2.5150,1.000248,1.500262,0.500000,1.500262
2.5160,1.000254,1.470901,0.470611,1.470901
2.5170,1.000261,1.452745,0.452447,1.452745
2.5180,1.000268,1.452696,0.452447,1.452696
2.5190,1.000275,1.470854,0.470611,1.470854
2.5200,1.000282,1.500272,0.500000,1.500272
2.5210,1.000290,1.529688,0.529389,1.529688
2.5220,1.000298,1.547855,0.547553,1.547855
2.5230,1.000307,1.547849,0.547553,1.547849
2.5240,1.000315,1.529685,0.529389,1.529685
2.5250,1.000324,1.500374,0.500000,1.500374
2.5260,1.000333,1.470958,0.470611,1.470958
2.5270,1.000343,1.452778,0.452447,1.452778
2.5280,1.000352,1.452744,0.452447,1.452744
2.5290,1.000362,1.470956,0.470611,1.470956
2.5300,1.000372,1.500393,0.500000,1.500393
2.5310,1.000383,1.529777,0.529389,1.529777
2.5320,1.000394,1.547995,0.547553,1.547995
2.5330,1.000405,1.547974,0.547553,1.547974
2.5340,1.000416,1.529769,0.529389,1.529769
2.5350,1.000427,1.500428,0.500000,1.500428
2.5360,1.000439,1.471042,0.470611,1.471042
2.5370,1.000451,1.452928,0.452447,1.452928
2.5380,1.000463,1.452903,0.452447,1.452903
2.5390,1.000475,1.471102,0.470611,1.471102
2.5400,1.000488,1.500480,0.500000,1.500480
2.5410,1.000500,1.529894,0.529389,1.529894
2.5420,1.000513,1.548041,0.547553,1.548041
2.5430,1.000527,1.548026,0.547553,1.548026
2.5440,1.000540,1.529931,0.529389,1.529931
2.5450,1.000553,1.500528,0.500000,1.500528
2.5460,1.000567,1.471165,0.470611,1.471165
2.5470,1.000581,1.452988,0.452447,1.452988
2.5480,1.000595,1.453057,0.452447,1.453057
2.5490,1.000609,1.471210,0.470611,1.471210
2.5500,1.000624,1.500629,0.500000,1.500629
2.5510,1.000638,1.530039,0.529389,1.530039
2.5520,1.000653,1.548201,0.547553,1.548201
2.5530,1.000668,1.548213,0.547553,1.548213
2.5540,1.000683,1.530094,0.529389,1.530094
2.5550,1.000698,1.500661,0.500000,1.500661
2.5560,1.000713,1.471313,0.470611,1.471313
2.5570,1.000729,1.453186,0.452447,1.453186
2.5580,1.000744,1.453193,0.452447,1.453193
2.5590,1.000760,1.471363,0.470611,1.471363
2.5600,1.000776,1.500779,0.500000,1.500779
2.5610,1.000791,1.530174,0.529389,1.530174
2.5620,1.000807,1.548350,0.547553,1.548350
2.5630,1.000823,1.548408,0.547553,1.548408
2.5640,1.000839,1.530237,0.529389,1.530237
2.5650,1.000855,1.500853,0.500000,1.500853
2.5660,1.000871,1.471478,0.470611,1.471478
2.5670,1.000887,1.453305,0.452447,1.453305
2.5680,1.000903,1.453392,0.452447,1.453392
2.5690,1.000919,1.471520,0.470611,1.471520
2.5700,1.000935,1.500957,0.500000,1.500957
2.5710,1.000951,1.530347,0.529389,1.530347
2.5720,1.000967,1.548513,0.547553,1.548513
2.5730,1.000983,1.548517,0.547553,1.548517
2.5740,1.000999,1.530348,0.529389,1.530348
2.5750,1.001015,1.501015,0.500000,1.501015
2.5760,1.001031,1.471601,0.470611,1.471601
2.5770,1.001047,1.453509,0.452447,1.453509
2.5780,1.001062,1.453523,0.452447,1.453523
2.5790,1.001078,1.471663,0.470611,1.471663
2.5800,1.001093,1.501086,0.500000,1.501086
2.5810,1.001108,1.530471,0.529389,1.530471
2.5820,1.001124,1.548710,0.547553,1.548710
2.5830,1.001139,1.548683,0.547553,1.548683
2.5840,1.001154,1.530529,0.529389,1.530529
2.5850,1.001168,1.501154,0.500000,1.501154
2.5860,1.001183,1.471800,0.470611,1.471800
2.5870,1.001197,1.453634,0.452447,1.453634
2.5880,1.001211,1.453658,0.452447,1.453658
2.5890,1.001225,1.471826,0.470611,1.471826
2.5900,1.001239,1.501262,0.500000,1.501262
2.5910,1.001252,1.530623,0.529389,1.530623
2.5920,1.001265,1.548788,0.547553,1.548788
2.5930,1.001278,1.548802,0.547553,1.548802
2.5940,1.001291,1.530679,0.529389,1.530679
2.5950,1.001303,1.501262,0.500000,1.501262
2.5960,1.001315,1.471933,0.470611,1.471933
2.5970,1.001327,1.453743,0.452447,1.453743
2.5980,1.001338,1.453813,0.452447,1.453813
2.5990,1.001350,1.471972,0.470611,1.471972
2.6000,1.001360,1.501370,0.500000,1.501370
2.6010,1.001371,1.530759,0.529389,1.530759
2.6020,1.001381,1.548929,0.547553,1.548929
2.6030,1.001391,1.548965,0.547553,1.548965
2.6040,1.001400,1.530773,0.529389,1.530773
2.6050,1.001409,1.501405,0.500000,1.501405
2.6060,1.001418,1.472032,0.470611,1.472032
2.6070,1.001426,1.453886,0.452447,1.453886
2.6080,1.001434,1.453875,0.452447,1.453875
2.6090,1.001441,1.472070,0.470611,1.472070
2.6100,1.001448,1.501455,0.500000,1.501455
2.6110,1.001455,1.530864,0.529389,1.530864
2.6120,1.001461,1.549017,0.547553,1.549017
2.6130,1.001467,1.549070,0.547553,1.549070
2.6140,1.001472,1.530850,0.529389,1.530850
2.6150,1.001477,1.501488,0.500000,1.501488
2.6160,1.001481,1.472104,0.470611,1.472104
2.6170,1.001485,1.453957,0.452447,1.453957
2.6180,1.001489,1.453942,0.452447,1.453942
2.6190,1.001492,1.472145,0.470611,1.472145
2.6200,1.001494,1.501513,0.500000,1.501513
2.6210,1.001496,1.530897,0.529389,1.530897
2.6220,1.001498,1.549024,0.547553,1.549024
2.6230,1.001499,1.549065,0.547553,1.549065
2.6240,1.001500,1.530885,0.529389,1.530885
2.6250,1.001500,1.501512,0.500000,1.501512
2.6260,1.001500,1.472090,0.470611,1.472090
2.6270,1.001499,1.453974,0.452447,1.453974
2.6280,1.001498,1.453936,0.452447,1.453936
2.6290,1.001496,1.472126,0.470611,1.472126
2.6300,1.001494,1.501477,0.500000,1.501477
2.6310,1.001492,1.530928,0.529389,1.530928
2.6320,1.001489,1.549003,0.547553,1.549003
2.6330,1.001485,1.549007,0.547553,1.549007
2.6340,1.001481,1.530847,0.529389,1.530847
2.6350,1.001477,1.501461,0.500000,1.501461
2.6360,1.001472,1.472081,0.470611,1.472081
2.6370,1.001467,1.453949,0.452447,1.453949
2.6380,1.001461,1.453898,0.452447,1.453898
2.6390,1.001455,1.472057,0.470611,1.472057
2.6400,1.001448,1.501465,0.500000,1.501465
2.6410,1.001441,1.530807,0.529389,1.530807
2.6420,1.001434,1.548983,0.547553,1.548983
2.6430,1.001426,1.548944,0.547553,1.548944
2.6440,1.001418,1.530787,0.529389,1.530787
2.6450,1.001409,1.501366,0.500000,1.501366
2.6460,1.001400,1.472042,0.470611,1.472042
2.6470,1.001391,1.453848,0.452447,1.453848
2.6480,1.001381,1.453815,0.452447,1.453815
2.6490,1.001371,1.471938,0.470611,1.471938
2.6500,1.001360,1.501369,0.500000,1.501369
2.6510,1.001350,1.530768,0.529389,1.530768
2.6520,1.001338,1.548894,0.547553,1.548894
2.6530,1.001327,1.548854,0.547553,1.548854
2.6540,1.001315,1.530683,0.529389,1.530683
2.6550,1.001303,1.501300,0.500000,1.501300
2.6560,1.001291,1.471909,0.470611,1.471909
2.6570,1.001278,1.453713,0.452447,1.453713
2.6580,1.001265,1.453702,0.452447,1.453702
2.6590,1.001252,1.471859,0.470611,1.471859
2.6600,1.001239,1.501276,0.500000,1.501276
2.6610,1.001225,1.530604,0.529389,1.530604
2.6620,1.001211,1.548810,0.547553,1.548810
2.6630,1.001197,1.548734,0.547553,1.548734
2.6640,1.001183,1.530565,0.529389,1.530565
2.6650,1.001168,1.501195,0.500000,1.501195
2.6660,1.001153,1.471768,0.470611,1.471768
2.6670,1.001139,1.453612,0.452447,1.453612
2.6680,1.001124,1.453558,0.452447,1.453558
2.6690,1.001108,1.471717,0.470611,1.471717
2.6700,1.001093,1.501087,0.500000,1.501087
2.6710,1.001078,1.530497,0.529389,1.530497
2.6720,1.001062,1.548626,0.547553,1.548626
2.6730,1.001046,1.548578,0.547553,1.548578
2.6740,1.001031,1.530404,0.529389,1.530404
2.6750,1.001015,1.500990,0.500000,1.500990
2.6760,1.000999,1.471616,0.470611,1.471616
2.6770,1.000983,1.453428,0.452447,1.453428
2.6780,1.000967,1.453409,0.452447,1.453409
2.6790,1.000951,1.471589,0.470611,1.471589
2.6800,1.000935,1.500992,0.500000,1.500992
2.6810,1.000919,1.530310,0.529389,1.530310
2.6820,1.000903,1.548440,0.547553,1.548440
2.6830,1.000887,1.548456,0.547553,1.548456
2.6840,1.000871,1.530287,0.529389,1.530287
2.6850,1.000855,1.500881,0.500000,1.500881
2.6860,1.000839,1.471449,0.470611,1.471449
2.6870,1.000823,1.453255,0.452447,1.453255
2.6880,1.000807,1.453254,0.452447,1.453254
2.6890,1.000791,1.471421,0.470611,1.471421
2.6900,1.000775,1.500770,0.500000,1.500770
2.6910,1.000759,1.530143,0.529389,1.530143
2.6920,1.000744,1.548260,0.547553,1.548260
2.6930,1.000728,1.548296,0.547553,1.548296
2.6940,1.000713,1.530101,0.529389,1.530101
2.6950,1.000698,1.500671,0.500000,1.500671
2.6960,1.000682,1.471278,0.470611,1.471278
2.6970,1.000667,1.453132,0.452447,1.453132
2.6980,1.000652,1.453085,0.452447,1.453085
2.6990,1.000638,1.471220,0.470611,1.471220
2.7000,1.000623,1.500610,0.500000,1.500610
2.7010,1.000608,1.529985,0.529389,1.529985
2.7020,1.000594,1.548154,0.547553,1.548154
2.7030,1.000580,1.548125,0.547553,1.548125
2.7040,1.000566,1.529929,0.529389,1.529929
2.7050,1.000552,1.500574,0.500000,1.500574
2.7060,1.000538,1.471178,0.470611,1.471178
2.7070,1.000525,1.452968,0.452447,1.452968
2.7080,1.000511,1.452951,0.452447,1.452951
2.7090,1.000498,1.471121,0.470611,1.471121
2.7100,1.000485,1.500517,0.500000,1.500517
2.7110,1.000472,1.529845,0.529389,1.529845
2.7120,1.000460,1.548052,0.547553,1.548052
2.7130,1.000447,1.547981,0.547553,1.547981
2.7140,1.000435,1.529840,0.529389,1.529840
2.7150,1.000423,1.500467,0.500000,1.500467
2.7160,1.000411,1.470985,0.470611,1.470985
2.7170,1.000400,1.452839,0.452447,1.452839
2.7180,1.000388,1.452877,0.452447,1.452877
2.7190,1.000377,1.470969,0.470611,1.470969
2.7200,1.000366,1.500328,0.500000,1.500328
2.7210,1.000355,1.529811,0.529389,1.529811
2.7220,1.000345,1.547893,0.547553,1.547893
2.7230,1.000334,1.547930,0.547553,1.547930
2.7240,1.000324,1.529738,0.529389,1.529738
2.7250,1.000314,1.500294,0.500000,1.500294
2.7260,1.000305,1.470892,0.470611,1.470892
2.7270,1.000295,1.452759,0.452447,1.452759
2.7280,1.000286,1.452766,0.452447,1.452766
2.7290,1.000277,1.470889,0.470611,1.470889
2.7300,1.000268,1.500236,0.500000,1.500236
2.7310,1.000259,1.529670,0.529389,1.529670
2.7320,1.000251,1.547782,0.547553,1.547782
2.7330,1.000242,1.547813,0.547553,1.547813
2.7340,1.000234,1.529621,0.529389,1.529621
2.7350,1.000226,1.500228,0.500000,1.500228
2.7360,1.000219,1.470861,0.470611,1.470861
2.7370,1.000211,1.452680,0.452447,1.452680
2.7380,1.000204,1.452649,0.452447,1.452649
2.7390,1.000197,1.470766,0.470611,1.470766
2.7400,1.000190,1.500184,0.500000,1.500184
2.7410,1.000183,1.529568,0.529389,1.529568
2.7420,1.000177,1.547723,0.547553,1.547723
2.7430,1.000170,1.547739,0.547553,1.547739
2.7440,1.000164,1.529516,0.529389,1.529516
2.7450,1.000158,1.500157,0.500000,1.500157
2.7460,1.000152,1.470734,0.470611,1.470734
2.7470,1.000147,1.452615,0.452447,1.452615
2.7480,1.000141,1.452603,0.452447,1.452603
2.7490,1.000136,1.470737,0.470611,1.470737
2.7500,1.000131,1.500136,0.500000,1.500136
2.7510,1.000126,1.529491,0.529389,1.529491
2.7520,1.000121,1.547647,0.547553,1.547647
2.7530,1.000116,1.547656,0.547553,1.547656
2.7540,1.000111,1.529521,0.529389,1.529521
2.7550,1.000107,1.500113,0.500000,1.500113
2.7560,1.000103,1.470674,0.470611,1.470674
2.7570,1.000099,1.452550,0.452447,1.452550
2.7580,1.000095,1.452560,0.452447,1.452560
2.7590,1.000091,1.470705,0.470611,1.470705
2.7600,1.000087,1.500077,0.500000,1.500077
2.7610,1.000083,1.529460,0.529389,1.529460
2.7620,1.000080,1.547600,0.547553,1.547600
2.7630,1.000077,1.547635,0.547553,1.547635
2.7640,1.000073,1.529486,0.529389,1.529486
2.7650,1.000070,1.500091,0.500000,1.500091
2.7660,1.000067,1.470683,0.470611,1.470683
2.7670,1.000064,1.452510,0.452447,1.452510
2.7680,1.000061,1.452480,0.452447,1.452480
2.7690,1.000059,1.470640,0.470611,1.470640
2.7700,1.000056,1.500079,0.500000,1.500079
2.7710,1.000054,1.529428,0.529389,1.529428
2.7720,1.000051,1.547597,0.547553,1.547597
2.7730,1.000049,1.547591,0.547553,1.547591
2.7740,1.000047,1.529455,0.529389,1.529455
2.7750,1.000045,1.500033,0.500000,1.500033
2.7760,1.000043,1.470658,0.470611,1.470658
2.7770,1.000041,1.452466,0.452447,1.452466
2.7780,1.000039,1.452472,0.452447,1.452472
2.7790,1.000037,1.470641,0.470611,1.470641
2.7800,1.000035,1.500056,0.500000,1.500056
2.7810,1.000033,1.529425,0.529389,1.529425
2.7820,1.000032,1.547583,0.547553,1.547583
2.7830,1.000030,1.547588,0.547553,1.547588
2.7840,1.000029,1.529428,0.529389,1.529428
2.7850,1.000027,1.500032,0.500000,1.500032
2.7860,1.000026,1.470632,0.470611,1.470632
2.7870,1.000025,1.452475,0.452447,1.452475
2.7880,1.000024,1.452457,0.452447,1.452457
