time_s,ppg_clean_ua,ppg_with_ambient_ua,ambient_ua,photodiode_total_ua
0.0000,3.000000,11.000037,8.000000,11.000037
0.0010,3.000000,11.470215,8.470228,11.470215
0.0020,3.000000,11.760738,8.760845,11.760738
0.0030,3.000000,11.760758,8.760845,11.760758
0.0040,3.000000,11.470260,8.470228,11.470260
0.0050,3.000000,10.999950,8.000000,10.999950
0.0060,3.000000,10.529753,7.529772,10.529753
0.0070,3.000000,10.239151,7.239155,10.239151
0.0080,3.000000,10.239283,7.239155,10.239283
0.0090,3.000000,10.529764,7.529772,10.529764
0.0100,3.000000,10.999933,8.000000,10.999933
0.0110,3.000000,11.470134,8.470228,11.470134
0.0120,3.000000,11.760842,8.760845,11.760842
0.0130,3.000000,11.760860,8.760845,11.760860
0.0140,3.000000,11.470256,8.470228,11.470256
0.0150,3.000000,11.000046,8.000000,11.000046
0.0160,3.000000,10.529829,7.529772,10.529829
0.0170,3.000000,10.239174,7.239155,10.239174
0.0180,3.000000,10.239094,7.239155,10.239094
0.0190,3.000000,10.529831,7.529772,10.529831
0.0200,3.000000,11.000079,8.000000,11.000079
0.0210,3.000000,11.470200,8.470228,11.470200
0.0220,3.000000,11.760867,8.760845,11.760867
0.0230,3.000000,11.760834,8.760845,11.760834
0.0240,3.000000,11.470274,8.470228,11.470274
0.0250,3.000000,11.000011,8.000000,11.000011
0.0260,3.000000,10.529789,7.529772,10.529789
0.0270,3.000000,10.239220,7.239155,10.239220
0.0280,3.000000,10.239105,7.239155,10.239105
0.0290,3.000000,10.529774,7.529772,10.529774
0.0300,3.000000,10.999942,8.000000,10.999942
0.0310,3.000000,11.470349,8.470228,11.470349
0.0320,3.000000,11.760720,8.760845,11.760720
0.0330,3.000000,11.760895,8.760845,11.760895
0.0340,3.000000,11.470382,8.470228,11.470382
0.0350,3.000000,10.999938,8.000000,10.999938
0.0360,3.000000,10.529805,7.529772,10.529805
0.0370,3.000000,10.239189,7.239155,10.239189
0.0380,3.000000,10.239218,7.239155,10.239218
0.0390,3.000000,10.529737,7.529772,10.529737
0.0400,3.000000,11.000022,8.000000,11.000022
0.0410,3.000000,11.470230,8.470228,11.470230
0.0420,3.000000,11.760801,8.760845,11.760801
0.0430,3.000000,11.760871,8.760845,11.760871
0.0440,3.000000,11.470272,8.470228,11.470272
0.0450,3.000000,11.000113,8.000000,11.000113
0.0460,3.000000,10.529756,7.529772,10.529756
0.0470,3.000000,10.239205,7.239155,10.239205
0.0480,3.000000,10.239234,7.239155,10.239234
0.0490,3.000000,10.529810,7.529772,10.529810
0.0500,3.000000,11.000047,8.000000,11.000047
0.0510,3.000000,11.470307,8.470228,11.470307
0.0520,3.000000,11.760747,8.760845,11.760747
0.0530,3.000000,11.760856,8.760845,11.760856
0.0540,3.000000,11.470197,8.470228,11.470197
0.0550,3.000000,10.999946,8.000000,10.999946
0.0560,3.000000,10.529878,7.529772,10.529878
0.0570,3.000000,10.239130,7.239155,10.239130
0.0580,3.000000,10.239185,7.239155,10.239185
0.0590,3.000000,10.529702,7.529772,10.529702
0.0600,3.000000,11.000087,8.000000,11.000087
0.0610,3.000000,11.470245,8.470228,11.470245
0.0620,3.000000,11.760953,8.760845,11.760953
0.0630,3.000000,11.760823,8.760845,11.760823
0.0640,3.000000,11.470185,8.470228,11.470185
0.0650,3.000000,11.000046,8.000000,11.000046
0.0660,3.000000,10.529778,7.529772,10.529778
0.0670,3.000000,10.239143,7.239155,10.239143
0.0680,3.000000,10.239138,7.239155,10.239138
0.0690,3.000000,10.529838,7.529772,10.529838
0.0700,3.000000,11.000041,8.000000,11.000041
0.0710,3.000000,11.470132,8.470228,11.470132
0.0720,3.000000,11.760888,8.760845,11.760888
0.0730,3.000000,11.760955,8.760845,11.760955
0.0740,3.000000,11.470229,8.470228,11.470229
0.0750,3.000000,10.999977,8.000000,10.999977
0.0760,3.000000,10.529754,7.529772,10.529754
0.0770,3.000000,10.239107,7.239155,10.239107
0.0780,3.000000,10.239107,7.239155,10.239107
0.0790,3.000000,10.529792,7.529772,10.529792
0.0800,3.000000,10.999940,8.000000,10.999940
0.0810,3.000000,11.470106,8.470228,11.470106
0.0820,3.000000,11.760916,8.760845,11.760916
0.0830,3.000000,11.760811,8.760845,11.760811
0.0840,3.000000,11.470212,8.470228,11.470212
0.0850,3.000000,11.000054,8.000000,11.000054
0.0860,3.000000,10.529614,7.529772,10.529614
0.0870,3.000000,10.239117,7.239155,10.239117
0.0880,3.000000,10.239092,7.239155,10.239092
0.0890,3.000000,10.529790,7.529772,10.529790
0.0900,3.000000,11.000000,8.000000,11.000000
0.0910,3.000000,11.470145,8.470228,11.470145
0.0920,3.000000,11.760725,8.760845,11.760725
0.0930,3.000000,11.760703,8.760845,11.760703
0.0940,3.000000,11.470241,8.470228,11.470241
0.0950,3.000000,11.000009,8.000000,11.000009
0.0960,3.000000,10.529713,7.529772,10.529713
0.0970,3.000000,10.239167,7.239155,10.239167
0.0980,3.000000,10.239157,7.239155,10.239157
0.0990,3.000000,10.529780,7.529772,10.529780
0.1000,3.000000,10.999933,8.000000,10.999933
0.1010,3.000000,11.470185,8.470228,11.470185
0.1020,3.000000,11.760925,8.760845,11.760925
0.1030,3.000000,11.760800,8.760845,11.760800
0.1040,3.000000,11.470122,8.470228,11.470122
0.1050,3.000000,10.999937,8.000000,10.999937
0.1060,3.000000,10.529748,7.529772,10.529748
0.1070,3.000000,10.239111,7.239155,10.239111
0.1080,3.000000,10.239135,7.239155,10.239135
0.1090,3.000000,10.529717,7.529772,10.529717
0.1100,3.000000,11.000029,8.000000,11.000029
0.1110,3.000000,11.470248,8.470228,11.470248
0.1120,3.000000,11.760909,8.760845,11.760909
0.1130,3.000000,11.760949,8.760845,11.760949
0.1140,3.000000,11.470166,8.470228,11.470166
0.1150,3.000000,10.999972,8.000000,10.999972
0.1160,3.000000,10.529734,7.529772,10.529734
0.1170,3.000000,10.239158,7.239155,10.239158
0.1180,3.000000,10.239163,7.239155,10.239163
0.1190,3.000000,10.529718,7.529772,10.529718
0.1200,3.000000,11.000073,8.000000,11.000073
0.1210,3.000000,11.470175,8.470228,11.470175
0.1220,3.000000,11.760876,8.760845,11.760876
0.1230,3.000000,11.760830,8.760845,11.760830
0.1240,3.000000,11.470241,8.470228,11.470241
0.1250,3.000000,10.999956,8.000000,10.999956
0.1260,3.000000,10.529817,7.529772,10.529817
0.1270,3.000000,10.239177,7.239155,10.239177
0.1280,3.000000,10.239150,7.239155,10.239150
0.1290,3.000000,10.529811,7.529772,10.529811
0.1300,3.000000,10.999998,8.000000,10.999998
0.1310,3.000000,11.470198,8.470228,11.470198
0.1320,3.000000,11.760763,8.760845,11.760763
0.1330,3.000000,11.760793,8.760845,11.760793
0.1340,3.000000,11.470113,8.470228,11.470113
0.1350,3.000000,11.000043,8.000000,11.000043
0.1360,3.000000,10.529806,7.529772,10.529806
0.1370,3.000000,10.239088,7.239155,10.239088
0.1380,3.000000,10.239126,7.239155,10.239126
0.1390,3.000000,10.529777,7.529772,10.529777
0.1400,3.000000,10.999892,8.000000,10.999892
0.1410,3.000000,11.470212,8.470228,11.470212
0.1420,3.000000,11.760722,8.760845,11.760722
0.1430,3.000000,11.760808,8.760845,11.760808
0.1440,3.000000,11.470089,8.470228,11.470089
0.1450,3.000000,11.000035,8.000000,11.000035
0.1460,3.000000,10.529804,7.529772,10.529804
0.1470,3.000000,10.239195,7.239155,10.239195
0.1480,3.000000,10.239105,7.239155,10.239105
0.1490,3.000000,10.529795,7.529772,10.529795
0.1500,3.000000,11.000059,8.000000,11.000059
0.1510,3.000000,11.470299,8.470228,11.470299
0.1520,3.000000,11.760741,8.760845,11.760741
0.1530,3.000000,11.760864,8.760845,11.760864
0.1540,3.000000,11.470263,8.470228,11.470263
0.1550,3.000000,11.000014,8.000000,11.000014
0.1560,3.000000,10.529734,7.529772,10.529734
0.1570,3.000000,10.239167,7.239155,10.239167
0.1580,3.000000,10.239144,7.239155,10.239144
0.1590,3.000000,10.529702,7.529772,10.529702
0.1600,3.000000,10.999992,8.000000,10.999992
0.1610,3.000000,11.470238,8.470228,11.470238
0.1620,3.000000,11.760765,8.760845,11.760765
0.1630,3.000000,11.760916,8.760845,11.760916
0.1640,3.000000,11.470220,8.470228,11.470220
0.1650,3.000000,10.999944,8.000000,10.999944
0.1660,3.000000,10.529777,7.529772,10.529777
0.1670,3.000000,10.239109,7.239155,10.239109
0.1680,3.000000,10.239152,7.239155,10.239152
0.1690,3.000000,10.529788,7.529772,10.529788
0.1700,3.000000,10.999923,8.000000,10.999923
0.1710,3.000000,11.470220,8.470228,11.470220
0.1720,3.000000,11.760876,8.760845,11.760876
0.1730,3.000000,11.760858,8.760845,11.760858
0.1740,3.000000,11.470366,8.470228,11.470366
0.1750,3.000000,11.000001,8.000000,11.000001
0.1760,3.000000,10.529751,7.529772,10.529751
0.1770,3.000000,10.239187,7.239155,10.239187
0.1780,3.000000,10.239186,7.239155,10.239186
0.1790,3.000000,10.529740,7.529772,10.529740
0.1800,3.000000,11.000054,8.000000,11.000054
0.1810,3.000000,11.470355,8.470228,11.470355
0.1820,3.000000,11.760707,8.760845,11.760707
0.1830,3.000000,11.760749,8.760845,11.760749
0.1840,3.000000,11.470263,8.470228,11.470263
0.1850,3.000000,10.999994,8.000000,10.999994
0.1860,3.000000,10.529789,7.529772,10.529789
0.1870,3.000000,10.239130,7.239155,10.239130
0.1880,3.000000,10.239207,7.239155,10.239207
0.1890,3.000000,10.529781,7.529772,10.529781
0.1900,3.000000,11.000067,8.000000,11.000067
0.1910,3.000000,11.470163,8.470228,11.470163
0.1920,3.000000,11.760782,8.760845,11.760782
0.1930,3.000000,11.760911,8.760845,11.760911
0.1940,3.000000,11.470275,8.470228,11.470275
0.1950,3.000000,10.999940,8.000000,10.999940
0.1960,3.000000,10.529738,7.529772,10.529738
0.1970,3.000000,10.239152,7.239155,10.239152
0.1980,3.000000,10.239060,7.239155,10.239060
0.1990,3.000000,10.529742,7.529772,10.529742
0.2000,3.000000,10.999934,8.000000,10.999934
0.2010,3.000000,11.470231,8.470228,11.470231
0.2020,3.000000,11.760767,8.760845,11.760767
0.2030,3.000000,11.760849,8.760845,11.760849
0.2040,3.000000,11.470254,8.470228,11.470254
0.2050,3.000000,10.999939,8.000000,10.999939
0.2060,3.000000,10.529828,7.529772,10.529828
0.2070,3.000000,10.239134,7.239155,10.239134
0.2080,3.000000,10.239112,7.239155,10.239112
0.2090,3.000000,10.529757,7.529772,10.529757
0.2100,3.000000,10.999973,8.000000,10.999973
0.2110,3.000000,11.470179,8.470228,11.470179
0.2120,3.000000,11.760934,8.760845,11.760934
0.2130,3.000000,11.760753,8.760845,11.760753
0.2140,3.000000,11.470220,8.470228,11.470220
0.2150,3.000000,11.000105,8.000000,11.000105
0.2160,3.000000,10.529886,7.529772,10.529886
0.2170,3.000000,10.239134,7.239155,10.239134
0.2180,3.000000,10.239171,7.239155,10.239171
0.2190,3.000000,10.529751,7.529772,10.529751
0.2200,3.000000,10.999955,8.000000,10.999955
0.2210,3.000000,11.470082,8.470228,11.470082
0.2220,3.000000,11.760845,8.760845,11.760845
0.2230,3.000000,11.760813,8.760845,11.760813
0.2240,3.000000,11.470190,8.470228,11.470190
0.2250,3.000000,11.000025,8.000000,11.000025
0.2260,3.000000,10.529812,7.529772,10.529812
0.2270,3.000000,10.239116,7.239155,10.239116
0.2280,3.000000,10.239099,7.239155,10.239099
0.2290,3.000000,10.529693,7.529772,10.529693
0.2300,3.000000,10.999947,8.000000,10.999947
0.2310,3.000000,11.470113,8.470228,11.470113
0.2320,3.000000,11.760887,8.760845,11.760887
0.2330,3.000000,11.760811,8.760845,11.760811
0.2340,3.000000,11.470350,8.470228,11.470350
0.2350,3.000000,10.999899,8.000000,10.999899
0.2360,3.000000,10.529764,7.529772,10.529764
0.2370,3.000000,10.239125,7.239155,10.239125
0.2380,3.000000,10.239175,7.239155,10.239175
0.2390,3.000000,10.529742,7.529772,10.529742
0.2400,3.000000,11.000071,8.000000,11.000071
0.2410,3.000000,11.470137,8.470228,11.470137
0.2420,3.000000,11.760917,8.760845,11.760917
0.2430,3.000000,11.760915,8.760845,11.760915
0.2440,3.000000,11.470221,8.470228,11.470221
0.2450,3.000000,11.000049,8.000000,11.000049
0.2460,3.000000,10.529798,7.529772,10.529798
0.2470,3.000000,10.239003,7.239155,10.239003
0.2480,3.000000,10.239103,7.239155,10.239103
0.2490,3.000000,10.529860,7.529772,10.529860
0.2500,3.000000,11.000053,8.000000,11.000053
0.2510,3.000000,11.470223,8.470228,11.470223
0.2520,3.000000,11.760823,8.760845,11.760823
0.2530,3.000000,11.760698,8.760845,11.760698
0.2540,3.000000,11.470300,8.470228,11.470300
0.2550,3.000000,11.000091,8.000000,11.000091
0.2560,3.000000,10.529772,7.529772,10.529772
0.2570,3.000000,10.239004,7.239155,10.239004
0.2580,3.000000,10.239171,7.239155,10.239171
0.2590,3.000000,10.529855,7.529772,10.529855
0.2600,3.000000,10.999960,8.000000,10.999960
0.2610,3.000000,11.470308,8.470228,11.470308
0.2620,3.000000,11.761022,8.760845,11.761022
0.2630,3.000000,11.760754,8.760845,11.760754
0.2640,3.000000,11.470207,8.470228,11.470207
0.2650,3.000000,10.999949,8.000000,10.999949
0.2660,3.000000,10.529791,7.529772,10.529791
0.2670,3.000000,10.239180,7.239155,10.239180
0.2680,3.000000,10.239133,7.239155,10.239133
0.2690,3.000000,10.529847,7.529772,10.529847
0.2700,3.000000,10.999938,8.000000,10.999938
0.2710,3.000000,11.470206,8.470228,11.470206
0.2720,3.000000,11.760885,8.760845,11.760885
0.2730,3.000000,11.760794,8.760845,11.760794
0.2740,3.000000,11.470232,8.470228,11.470232
0.2750,3.000000,11.000006,8.000000,11.000006
0.2760,3.000000,10.529826,7.529772,10.529826
0.2770,3.000000,10.239152,7.239155,10.239152
0.2780,3.000000,10.239144,7.239155,10.239144
0.2790,3.000000,10.529757,7.529772,10.529757
0.2800,3.000000,10.999992,8.000000,10.999992
0.2810,3.000000,11.470264,8.470228,11.470264
0.2820,3.000000,11.760881,8.760845,11.760881
0.2830,3.000000,11.760802,8.760845,11.760802
0.2840,3.000000,11.470291,8.470228,11.470291
0.2850,3.000000,11.000039,8.000000,11.000039
0.2860,3.000000,10.529718,7.529772,10.529718
0.2870,3.000000,10.239163,7.239155,10.239163
0.2880,3.000000,10.239142,7.239155,10.239142
0.2890,3.000000,10.529813,7.529772,10.529813
0.2900,3.000000,10.999963,8.000000,10.999963
0.2910,3.000000,11.470274,8.470228,11.470274
0.2920,3.000000,11.760911,8.760845,11.760911
0.2930,3.000000,11.760811,8.760845,11.760811
0.2940,3.000000,11.470315,8.470228,11.470315
0.2950,3.000000,10.999994,8.000000,10.999994
0.2960,3.000000,10.529749,7.529772,10.529749
0.2970,3.000000,10.239189,7.239155,10.239189
0.2980,3.000000,10.239141,7.239155,10.239141
0.2990,3.000000,10.529801,7.529772,10.529801
0.3000,3.000000,10.999981,8.000000,10.999981
0.3010,3.000000,11.470163,8.470228,11.470163
0.3020,3.000000,11.760809,8.760845,11.760809
0.3030,3.000000,11.760802,8.760845,11.760802
0.3040,3.000000,11.470189,8.470228,11.470189
0.3050,3.000000,10.999959,8.000000,10.999959
0.3060,3.000000,10.529822,7.529772,10.529822
0.3070,3.000000,10.239096,7.239155,10.239096
0.3080,3.000000,10.239140,7.239155,10.239140
0.3090,3.000000,10.529779,7.529772,10.529779
0.3100,3.000000,11.000011,8.000000,11.000011
0.3110,3.000000,11.470172,8.470228,11.470172
0.3120,3.000000,11.760703,8.760845,11.760703
0.3130,3.000000,11.760929,8.760845,11.760929
0.3140,3.000000,11.470227,8.470228,11.470227
0.3150,3.000000,11.000079,8.000000,11.000079
0.3160,3.000000,10.529732,7.529772,10.529732
0.3170,3.000000,10.239101,7.239155,10.239101
0.3180,3.000000,10.239156,7.239155,10.239156
0.3190,3.000000,10.529789,7.529772,10.529789
0.3200,3.000000,10.999950,8.000000,10.999950
0.3210,3.000000,11.470243,8.470228,11.470243
0.3220,3.000000,11.760792,8.760845,11.760792
0.3230,3.000000,11.760907,8.760845,11.760907
0.3240,3.000000,11.470254,8.470228,11.470254
0.3250,3.000000,10.999966,8.000000,10.999966
0.3260,3.000000,10.529784,7.529772,10.529784
0.3270,3.000000,10.239223,7.239155,10.239223
0.3280,3.000000,10.239095,7.239155,10.239095
0.3290,3.000000,10.529774,7.529772,10.529774
0.3300,3.000000,11.000035,8.000000,11.000035
0.3310,3.000000,11.470187,8.470228,11.470187
0.3320,3.000000,11.760924,8.760845,11.760924
0.3330,3.000000,11.760742,8.760845,11.760742
0.3340,3.000000,11.470183,8.470228,11.470183
0.3350,3.000000,11.000107,8.000000,11.000107
0.3360,3.000000,10.529762,7.529772,10.529762
0.3370,3.000000,10.239174,7.239155,10.239174
0.3380,3.000000,10.239130,7.239155,10.239130
0.3390,3.000000,10.529769,7.529772,10.529769
0.3400,3.000000,10.999943,8.000000,10.999943
0.3410,3.000000,11.470305,8.470228,11.470305
0.3420,3.000000,11.760875,8.760845,11.760875
0.3430,3.000000,11.760880,8.760845,11.760880
0.3440,3.000000,11.470233,8.470228,11.470233
0.3450,3.000000,11.000020,8.000000,11.000020
0.3460,3.000000,10.529856,7.529772,10.529856
0.3470,3.000000,10.239231,7.239155,10.239231
0.3480,3.000000,10.239186,7.239155,10.239186
0.3490,3.000000,10.529814,7.529772,10.529814
0.3500,3.000000,11.000124,8.000000,11.000124
0.3510,3.000000,11.470309,8.470228,11.470309
0.3520,3.000000,11.760827,8.760845,11.760827
0.3530,3.000000,11.760829,8.760845,11.760829
0.3540,3.000000,11.470228,8.470228,11.470228
0.3550,3.000000,11.000062,8.000000,11.000062
0.3560,3.000000,10.529697,7.529772,10.529697
0.3570,3.000000,10.239199,7.239155,10.239199
0.3580,3.000000,10.239135,7.239155,10.239135
0.3590,3.000000,10.529752,7.529772,10.529752
0.3600,3.000000,11.000028,8.000000,11.000028
0.3610,3.000000,11.470247,8.470228,11.470247
0.3620,3.000000,11.760866,8.760845,11.760866
0.3630,3.000000,11.760848,8.760845,11.760848
0.3640,3.000000,11.470248,8.470228,11.470248
0.3650,3.000000,11.000008,8.000000,11.000008
0.3660,3.000000,10.529759,7.529772,10.529759
0.3670,3.000000,10.239115,7.239155,10.239115
0.3680,3.000000,10.239094,7.239155,10.239094
0.3690,3.000000,10.529784,7.529772,10.529784
0.3700,3.000000,11.000035,8.000000,11.000035
0.3710,3.000000,11.470152,8.470228,11.470152
0.3720,3.000000,11.760802,8.760845,11.760802
0.3730,3.000000,11.760884,8.760845,11.760884
0.3740,3.000000,11.470164,8.470228,11.470164
0.3750,3.000000,11.000015,8.000000,11.000015
0.3760,3.000000,10.529800,7.529772,10.529800
0.3770,3.000000,10.239078,7.239155,10.239078
0.3780,3.000000,10.239185,7.239155,10.239185
0.3790,3.000000,10.529767,7.529772,10.529767
0.3800,3.000000,10.999962,8.000000,10.999962
0.3810,3.000000,11.470338,8.470228,11.470338
0.3820,3.000000,11.760848,8.760845,11.760848
0.3830,3.000000,11.760806,8.760845,11.760806
0.3840,3.000000,11.470228,8.470228,11.470228
0.3850,3.000000,11.000126,8.000000,11.000126
0.3860,3.000000,10.529786,7.529772,10.529786
0.3870,3.000000,10.239319,7.239155,10.239319
0.3880,3.000000,10.239247,7.239155,10.239247
0.3890,3.000000,10.529801,7.529772,10.529801
0.3900,3.000000,10.999975,8.000000,10.999975
0.3910,3.000000,11.470287,8.470228,11.470287
0.3920,3.000000,11.760785,8.760845,11.760785
0.3930,3.000000,11.760738,8.760845,11.760738
0.3940,3.000000,11.470179,8.470228,11.470179
0.3950,3.000000,11.000063,8.000000,11.000063
0.3960,3.000000,10.529838,7.529772,10.529838
0.3970,3.000000,10.239147,7.239155,10.239147
0.3980,3.000000,10.239094,7.239155,10.239094
0.3990,3.000000,10.529805,7.529772,10.529805
0.4000,3.000000,11.000039,8.000000,11.000039
0.4010,3.000000,11.470268,8.470228,11.470268
0.4020,3.000000,11.760881,8.760845,11.760881
0.4030,3.000000,11.760799,8.760845,11.760799
0.4040,3.000000,11.470219,8.470228,11.470219
0.4050,3.000000,11.000016,8.000000,11.000016
0.4060,3.000000,10.529820,7.529772,10.529820
0.4070,3.000000,10.239099,7.239155,10.239099
0.4080,3.000000,10.239112,7.239155,10.239112
0.4090,3.000000,10.529681,7.529772,10.529681
0.4100,3.000000,11.000060,8.000000,11.000060
0.4110,3.000000,11.470209,8.470228,11.470209
0.4120,3.000000,11.760761,8.760845,11.760761
0.4130,3.000000,11.760917,8.760845,11.760917
0.4140,3.000000,11.470248,8.470228,11.470248
0.4150,3.000000,11.000025,8.000000,11.000025
0.4160,3.000000,10.529800,7.529772,10.529800
0.4170,3.000000,10.239245,7.239155,10.239245
0.4180,3.000000,10.239112,7.239155,10.239112
0.4190,3.000000,10.529814,7.529772,10.529814
0.4200,3.000000,11.000104,8.000000,11.000104
0.4210,3.000000,11.470191,8.470228,11.470191
0.4220,3.000000,11.760794,8.760845,11.760794
0.4230,3.000000,11.760819,8.760845,11.760819
0.4240,3.000000,11.470148,8.470228,11.470148
0.4250,3.000000,10.999914,8.000000,10.999914
0.4260,3.000000,10.529698,7.529772,10.529698
0.4270,3.000000,10.239107,7.239155,10.239107
0.4280,3.000000,10.239164,7.239155,10.239164
0.4290,3.000000,10.529722,7.529772,10.529722
0.4300,3.000000,11.000008,8.000000,11.000008
0.4310,3.000000,11.470245,8.470228,11.470245
0.4320,3.000000,11.760796,8.760845,11.760796
0.4330,3.000000,11.760759,8.760845,11.760759
0.4340,3.000000,11.470257,8.470228,11.470257
0.4350,3.000000,10.999937,8.000000,10.999937
0.4360,3.000000,10.529646,7.529772,10.529646
0.4370,3.000000,10.239084,7.239155,10.239084
0.4380,3.000000,10.239240,7.239155,10.239240
0.4390,3.000000,10.529817,7.529772,10.529817
0.4400,3.000000,10.999954,8.000000,10.999954
0.4410,3.000000,11.470149,8.470228,11.470149
0.4420,3.000000,11.760788,8.760845,11.760788
0.4430,3.000000,11.760852,8.760845,11.760852
0.4440,3.000000,11.470230,8.470228,11.470230
0.4450,3.000000,11.000130,8.000000,11.000130
0.4460,3.000000,10.529783,7.529772,10.529783
0.4470,3.000000,10.239145,7.239155,10.239145
0.4480,3.000000,10.239175,7.239155,10.239175
0.4490,3.000000,10.529808,7.529772,10.529808
0.4500,3.000000,10.999986,8.000000,10.999986
0.4510,3.000000,11.470340,8.470228,11.470340
0.4520,3.000000,11.760834,8.760845,11.760834
0.4530,3.000000,11.760757,8.760845,11.760757
0.4540,3.000000,11.470293,8.470228,11.470293
0.4550,3.000000,10.999913,8.000000,10.999913
0.4560,3.000000,10.529709,7.529772,10.529709
0.4570,3.000000,10.239204,7.239155,10.239204
0.4580,3.000000,10.239175,7.239155,10.239175
0.4590,3.000000,10.529667,7.529772,10.529667
0.4600,3.000000,11.000090,8.000000,11.000090
0.4610,3.000000,11.470194,8.470228,11.470194
0.4620,3.000000,11.760788,8.760845,11.760788
0.4630,3.000000,11.760842,8.760845,11.760842
0.4640,3.000000,11.470218,8.470228,11.470218
0.4650,3.000000,11.000007,8.000000,11.000007
0.4660,3.000000,10.529779,7.529772,10.529779
0.4670,3.000000,10.239084,7.239155,10.239084
0.4680,3.000000,10.239140,7.239155,10.239140
0.4690,3.000000,10.529770,7.529772,10.529770
0.4700,3.000000,10.999947,8.000000,10.999947
0.4710,3.000000,11.470242,8.470228,11.470242
0.4720,3.000000,11.760776,8.760845,11.760776
0.4730,3.000000,11.760710,8.760845,11.760710
0.4740,3.000000,11.470187,8.470228,11.470187
0.4750,3.000000,11.000005,8.000000,11.000005
0.4760,3.000000,10.529849,7.529772,10.529849
0.4770,3.000000,10.239006,7.239155,10.239006
0.4780,3.000000,10.239163,7.239155,10.239163
0.4790,3.000000,10.529837,7.529772,10.529837
0.4800,3.000000,10.999956,8.000000,10.999956
0.4810,3.000000,11.470133,8.470228,11.470133
0.4820,3.000000,11.760914,8.760845,11.760914
0.4830,3.000000,11.760856,8.760845,11.760856
0.4840,3.000000,11.470396,8.470228,11.470396
0.4850,3.000000,11.000058,8.000000,11.000058
0.4860,3.000000,10.529746,7.529772,10.529746
0.4870,3.000000,10.239203,7.239155,10.239203
0.4880,3.000000,10.239137,7.239155,10.239137
0.4890,3.000000,10.529673,7.529772,10.529673
0.4900,3.000000,10.999955,8.000000,10.999955
0.4910,3.000000,11.470178,8.470228,11.470178
0.4920,3.000000,11.760872,8.760845,11.760872
0.4930,3.000000,11.760796,8.760845,11.760796
0.4940,3.000000,11.470178,8.470228,11.470178
0.4950,3.000000,11.000013,8.000000,11.000013
0.4960,3.000000,10.529742,7.529772,10.529742
0.4970,3.000000,10.239230,7.239155,10.239230
0.4980,3.000000,10.239089,7.239155,10.239089
0.4990,3.000000,10.529782,7.529772,10.529782
0.5000,3.000000,11.000021,8.000000,11.000021
0.5010,3.000000,11.470195,8.470228,11.470195
0.5020,3.000000,11.760900,8.760845,11.760900
0.5030,3.000000,11.760900,8.760845,11.760900
0.5040,3.000000,11.470082,8.470228,11.470082
0.5050,3.000000,10.999937,8.000000,10.999937
0.5060,3.000000,10.529813,7.529772,10.529813
0.5070,3.000000,10.239233,7.239155,10.239233
0.5080,3.000000,10.239245,7.239155,10.239245
0.5090,3.000000,10.529856,7.529772,10.529856
0.5100,3.000000,11.000134,8.000000,11.000134
0.5110,3.000000,11.470215,8.470228,11.470215
0.5120,3.000000,11.760985,8.760845,11.760985
0.5130,3.000000,11.760840,8.760845,11.760840
0.5140,3.000000,11.470225,8.470228,11.470225
0.5150,3.000000,10.999961,8.000000,10.999961
0.5160,3.000000,10.529828,7.529772,10.529828
0.5170,3.000000,10.239143,7.239155,10.239143
0.5180,3.000000,10.239034,7.239155,10.239034
0.5190,3.000000,10.529878,7.529772,10.529878
0.5200,3.000000,10.999978,8.000000,10.999978
0.5210,3.000000,11.470280,8.470228,11.470280
0.5220,3.000000,11.760920,8.760845,11.760920
0.5230,3.000000,11.760882,8.760845,11.760882
0.5240,3.000000,11.470283,8.470228,11.470283
0.5250,3.000000,11.000023,8.000000,11.000023
0.5260,3.000000,10.529714,7.529772,10.529714
0.5270,3.000000,10.239216,7.239155,10.239216
0.5280,3.000000,10.239110,7.239155,10.239110
0.5290,3.000000,10.529863,7.529772,10.529863
0.5300,3.000000,10.999960,8.000000,10.999960
0.5310,3.000000,11.470283,8.470228,11.470283
0.5320,3.000000,11.760879,8.760845,11.760879
0.5330,3.000000,11.760833,8.760845,11.760833
0.5340,3.000000,11.470218,8.470228,11.470218
0.5350,3.000000,11.000048,8.000000,11.000048
0.5360,3.000000,10.529735,7.529772,10.529735
0.5370,3.000000,10.239151,7.239155,10.239151
0.5380,3.000000,10.239143,7.239155,10.239143
0.5390,3.000000,10.529632,7.529772,10.529632
0.5400,3.000000,11.000033,8.000000,11.000033
0.5410,3.000000,11.470108,8.470228,11.470108
0.5420,3.000000,11.760800,8.760845,11.760800
0.5430,3.000000,11.760789,8.760845,11.760789
0.5440,3.000000,11.470198,8.470228,11.470198
0.5450,3.000000,11.000036,8.000000,11.000036
0.5460,3.000000,10.529804,7.529772,10.529804
0.5470,3.000000,10.239200,7.239155,10.239200
0.5480,3.000000,10.239047,7.239155,10.239047
0.5490,3.000000,10.529751,7.529772,10.529751
0.5500,3.000000,10.999956,8.000000,10.999956
0.5510,3.000000,11.470261,8.470228,11.470261
0.5520,3.000000,11.760813,8.760845,11.760813
0.5530,3.000000,11.760845,8.760845,11.760845
0.5540,3.000000,11.470209,8.470228,11.470209
0.5550,3.000000,10.999986,8.000000,10.999986
0.5560,3.000000,10.529730,7.529772,10.529730
0.5570,3.000000,10.239136,7.239155,10.239136
0.5580,3.000000,10.239179,7.239155,10.239179
0.5590,3.000000,10.529789,7.529772,10.529789
0.5600,3.000000,10.999997,8.000000,10.999997
0.5610,3.000000,11.470186,8.470228,11.470186
0.5620,3.000000,11.760794,8.760845,11.760794
0.5630,3.000000,11.760822,8.760845,11.760822
0.5640,3.000000,11.470276,8.470228,11.470276
0.5650,3.000000,10.999987,8.000000,10.999987
0.5660,3.000000,10.529791,7.529772,10.529791
0.5670,3.000000,10.239294,7.239155,10.239294
0.5680,3.000000,10.239122,7.239155,10.239122
0.5690,3.000000,10.529694,7.529772,10.529694
0.5700,3.000000,10.999985,8.000000,10.999985
0.5710,3.000000,11.470196,8.470228,11.470196
0.5720,3.000000,11.760776,8.760845,11.760776
0.5730,3.000000,11.760761,8.760845,11.760761
0.5740,3.000000,11.470246,8.470228,11.470246
0.5750,3.000000,11.000022,8.000000,11.000022
0.5760,3.000000,10.529756,7.529772,10.529756
0.5770,3.000000,10.239126,7.239155,10.239126
0.5780,3.000000,10.239144,7.239155,10.239144
0.5790,3.000000,10.529770,7.529772,10.529770
0.5800,3.000000,11.000031,8.000000,11.000031
0.5810,3.000000,11.470393,8.470228,11.470393
0.5820,3.000000,11.760852,8.760845,11.760852
0.5830,3.000000,11.760778,8.760845,11.760778
0.5840,3.000000,11.470179,8.470228,11.470179
0.5850,3.000000,10.999937,8.000000,10.999937
0.5860,3.000000,10.529744,7.529772,10.529744
0.5870,3.000000,10.239178,7.239155,10.239178
0.5880,3.000000,10.239247,7.239155,10.239247
0.5890,3.000000,10.529672,7.529772,10.529672
0.5900,3.000000,11.000052,8.000000,11.000052
0.5910,3.000000,11.470201,8.470228,11.470201
0.5920,3.000000,11.760781,8.760845,11.760781
0.5930,3.000000,11.760808,8.760845,11.760808
0.5940,3.000000,11.470180,8.470228,11.470180
0.5950,3.000000,10.999912,8.000000,10.999912
0.5960,3.000000,10.529825,7.529772,10.529825
0.5970,3.000000,10.239111,7.239155,10.239111
0.5980,3.000000,10.239075,7.239155,10.239075
0.5990,3.000000,10.529799,7.529772,10.529799
0.6000,3.000000,11.000041,8.000000,11.000041
0.6010,3.000000,11.470291,8.470228,11.470291
0.6020,3.000000,11.760774,8.760845,11.760774
0.6030,3.000000,11.760918,8.760845,11.760918
0.6040,3.000000,11.470312,8.470228,11.470312
0.6050,3.000000,10.999983,8.000000,10.999983
0.6060,3.000000,10.529732,7.529772,10.529732
0.6070,3.000000,10.239142,7.239155,10.239142
0.6080,3.000000,10.239147,7.239155,10.239147
0.6090,3.000000,10.529739,7.529772,10.529739
0.6100,3.000000,11.000050,8.000000,11.000050
0.6110,3.000000,11.470247,8.470228,11.470247
0.6120,3.000000,11.760992,8.760845,11.760992
0.6130,3.000000,11.760828,8.760845,11.760828
0.6140,3.000000,11.470207,8.470228,11.470207
0.6150,3.000000,10.999902,8.000000,10.999902
0.6160,3.000000,10.529757,7.529772,10.529757
0.6170,3.000000,10.239165,7.239155,10.239165
0.6180,3.000000,10.239114,7.239155,10.239114
0.6190,3.000000,10.529762,7.529772,10.529762
0.6200,3.000000,10.999946,8.000000,10.999946
0.6210,3.000000,11.470267,8.470228,11.470267
0.6220,3.000000,11.760795,8.760845,11.760795
0.6230,3.000000,11.760826,8.760845,11.760826
0.6240,3.000000,11.470160,8.470228,11.470160
0.6250,3.000000,11.000003,8.000000,11.000003
0.6260,3.000000,10.529725,7.529772,10.529725
0.6270,3.000000,10.239139,7.239155,10.239139
0.6280,3.000000,10.239210,7.239155,10.239210
0.6290,3.000000,10.529686,7.529772,10.529686
0.6300,3.000000,11.000006,8.000000,11.000006
0.6310,3.000000,11.470137,8.470228,11.470137
0.6320,3.000000,11.760874,8.760845,11.760874
0.6330,3.000000,11.760845,8.760845,11.760845
0.6340,3.000000,11.470272,8.470228,11.470272
0.6350,3.000000,10.999956,8.000000,10.999956
0.6360,3.000000,10.529709,7.529772,10.529709
0.6370,3.000000,10.239177,7.239155,10.239177
0.6380,3.000000,10.239175,7.239155,10.239175
0.6390,3.000000,10.529711,7.529772,10.529711
0.6400,3.000000,11.000109,8.000000,11.000109
0.6410,3.000000,11.470288,8.470228,11.470288
0.6420,3.000000,11.760833,8.760845,11.760833
0.6430,3.000000,11.760848,8.760845,11.760848
0.6440,3.000000,11.470254,8.470228,11.470254
0.6450,3.000000,10.999955,8.000000,10.999955
0.6460,3.000000,10.529713,7.529772,10.529713
0.6470,3.000000,10.239175,7.239155,10.239175
0.6480,3.000000,10.239223,7.239155,10.239223
0.6490,3.000000,10.529827,7.529772,10.529827
0.6500,3.000000,11.000004,8.000000,11.000004
0.6510,3.000000,11.470135,8.470228,11.470135
0.6520,3.000000,11.760830,8.760845,11.760830
0.6530,3.000000,11.760899,8.760845,11.760899
0.6540,3.000000,11.470242,8.470228,11.470242
0.6550,3.000000,10.999980,8.000000,10.999980
0.6560,3.000000,10.529651,7.529772,10.529651
0.6570,3.000000,10.239194,7.239155,10.239194
0.6580,3.000000,10.239062,7.239155,10.239062
0.6590,3.000000,10.529684,7.529772,10.529684
0.6600,3.000000,10.999970,8.000000,10.999970
0.6610,3.000000,11.470265,8.470228,11.470265
0.6620,3.000000,11.760919,8.760845,11.760919
0.6630,3.000000,11.760803,8.760845,11.760803
0.6640,3.000000,11.470234,8.470228,11.470234
0.6650,3.000000,11.000022,8.000000,11.000022
0.6660,3.000000,10.529775,7.529772,10.529775
0.6670,3.000000,10.239134,7.239155,10.239134
0.6680,3.000000,10.239230,7.239155,10.239230
0.6690,3.000000,10.529674,7.529772,10.529674
0.6700,3.000000,10.999865,8.000000,10.999865
0.6710,3.000000,11.470217,8.470228,11.470217
0.6720,3.000000,11.760867,8.760845,11.760867
0.6730,3.000000,11.760793,8.760845,11.760793
0.6740,3.000000,11.470087,8.470228,11.470087
0.6750,3.000000,10.999997,8.000000,10.999997
0.6760,3.000000,10.529713,7.529772,10.529713
0.6770,3.000000,10.239156,7.239155,10.239156
0.6780,3.000000,10.239163,7.239155,10.239163
0.6790,3.000000,10.529858,7.529772,10.529858
0.6800,3.000000,11.000013,8.000000,11.000013
0.6810,3.000000,11.470255,8.470228,11.470255
0.6820,3.000000,11.760777,8.760845,11.760777
0.6830,3.000000,11.760912,8.760845,11.760912
0.6840,3.000000,11.470250,8.470228,11.470250
0.6850,3.000000,11.000019,8.000000,11.000019
0.6860,3.000000,10.529796,7.529772,10.529796
0.6870,3.000000,10.239092,7.239155,10.239092
0.6880,3.000000,10.239104,7.239155,10.239104
0.6890,3.000000,10.529787,7.529772,10.529787
0.6900,3.000000,10.999977,8.000000,10.999977
0.6910,3.000000,11.470175,8.470228,11.470175
0.6920,3.000000,11.760825,8.760845,11.760825
0.6930,3.000000,11.760955,8.760845,11.760955
0.6940,3.000000,11.470200,8.470228,11.470200
0.6950,3.000000,11.000122,8.000000,11.000122
0.6960,3.000000,10.529794,7.529772,10.529794
0.6970,3.000000,10.239191,7.239155,10.239191
0.6980,3.000000,10.239143,7.239155,10.239143
0.6990,3.000000,10.529741,7.529772,10.529741
0.7000,3.000000,10.999976,8.000000,10.999976
0.7010,3.000000,11.470250,8.470228,11.470250
0.7020,3.000000,11.760881,8.760845,11.760881
0.7030,3.000000,11.760829,8.760845,11.760829
0.7040,3.000000,11.470345,8.470228,11.470345
0.7050,3.000000,10.999997,8.000000,10.999997
0.7060,3.000000,10.529811,7.529772,10.529811
0.7070,3.000000,10.239162,7.239155,10.239162
0.7080,3.000000,10.239151,7.239155,10.239151
0.7090,3.000000,10.529712,7.529772,10.529712
0.7100,3.000000,10.999978,8.000000,10.999978
0.7110,3.000000,11.470307,8.470228,11.470307
0.7120,3.000000,11.760743,8.760845,11.760743
0.7130,3.000000,11.760923,8.760845,11.760923
0.7140,3.000000,11.470344,8.470228,11.470344
0.7150,3.000000,10.999942,8.000000,10.999942
0.7160,3.000000,10.529782,7.529772,10.529782
0.7170,3.000000,10.239101,7.239155,10.239101
0.7180,3.000000,10.239180,7.239155,10.239180
0.7190,3.000000,10.529828,7.529772,10.529828
0.7200,3.000000,11.000091,8.000000,11.000091
0.7210,3.000000,11.470268,8.470228,11.470268
0.7220,3.000000,11.760814,8.760845,11.760814
0.7230,3.000000,11.760749,8.760845,11.760749
0.7240,3.000000,11.470198,8.470228,11.470198
0.7250,3.000000,10.999960,8.000000,10.999960
0.7260,3.000000,10.529742,7.529772,10.529742
0.7270,3.000000,10.239184,7.239155,10.239184
0.7280,3.000000,10.239077,7.239155,10.239077
0.7290,3.000000,10.529772,7.529772,10.529772
0.7300,3.000000,11.000072,8.000000,11.000072
0.7310,3.000000,11.470173,8.470228,11.470173
0.7320,3.000000,11.760850,8.760845,11.760850
0.7330,3.000000,11.760720,8.760845,11.760720
0.7340,3.000000,11.470228,8.470228,11.470228
0.7350,3.000000,10.999912,8.000000,10.999912
0.7360,3.000000,10.529817,7.529772,10.529817
0.7370,3.000000,10.239086,7.239155,10.239086
0.7380,3.000000,10.239166,7.239155,10.239166
0.7390,3.000000,10.529640,7.529772,10.529640
0.7400,3.000000,10.999916,8.000000,10.999916
0.7410,3.000000,11.470175,8.470228,11.470175
0.7420,3.000000,11.760906,8.760845,11.760906
0.7430,3.000000,11.760840,8.760845,11.760840
0.7440,3.000000,11.470137,8.470228,11.470137
0.7450,3.000000,10.999932,8.000000,10.999932
0.7460,3.000000,10.529848,7.529772,10.529848
0.7470,3.000000,10.239046,7.239155,10.239046
0.7480,3.000000,10.239191,7.239155,10.239191
0.7490,3.000000,10.529746,7.529772,10.529746
0.7500,3.000000,11.000020,8.000000,11.000020
0.7510,3.000000,11.470164,8.470228,11.470164
0.7520,3.000000,11.760803,8.760845,11.760803
0.7530,3.000000,11.760713,8.760845,11.760713
0.7540,3.000000,11.470331,8.470228,11.470331
0.7550,3.000000,10.999970,8.000000,10.999970
0.7560,3.000000,10.529817,7.529772,10.529817
0.7570,3.000000,10.239082,7.239155,10.239082
0.7580,3.000000,10.239166,7.239155,10.239166
0.7590,3.000000,10.529817,7.529772,10.529817
0.7600,3.000000,10.999959,8.000000,10.999959
0.7610,3.000000,11.470220,8.470228,11.470220
0.7620,3.000000,11.760855,8.760845,11.760855
0.7630,3.000000,11.760825,8.760845,11.760825
0.7640,3.000000,11.470201,8.470228,11.470201
0.7650,3.000000,10.999952,8.000000,10.999952
0.7660,3.000000,10.529770,7.529772,10.529770
0.7670,3.000000,10.239155,7.239155,10.239155
0.7680,3.000000,10.239151,7.239155,10.239151
0.7690,3.000000,10.529709,7.529772,10.529709
0.7700,3.000000,11.000020,8.000000,11.000020
0.7710,3.000000,11.470167,8.470228,11.470167
0.7720,3.000000,11.760790,8.760845,11.760790
0.7730,3.000000,11.760812,8.760845,11.760812
0.7740,3.000000,11.470255,8.470228,11.470255
0.7750,3.000000,11.000032,8.000000,11.000032
0.7760,3.000000,10.529773,7.529772,10.529773
0.7770,3.000000,10.239115,7.239155,10.239115
0.7780,3.000000,10.239122,7.239155,10.239122
0.7790,3.000000,10.529767,7.529772,10.529767
0.7800,3.000000,10.999984,8.000000,10.999984
0.7810,3.000000,11.470163,8.470228,11.470163
0.7820,3.000000,11.760770,8.760845,11.760770
0.7830,3.000000,11.760789,8.760845,11.760789
0.7840,3.000000,11.470195,8.470228,11.470195
0.7850,3.000000,10.999879,8.000000,10.999879
0.7860,3.000000,10.529737,7.529772,10.529737
0.7870,3.000000,10.239151,7.239155,10.239151
0.7880,3.000000,10.239109,7.239155,10.239109
0.7890,3.000000,10.529606,7.529772,10.529606
0.7900,3.000000,11.000073,8.000000,11.000073
0.7910,3.000000,11.470162,8.470228,11.470162
0.7920,3.000000,11.760833,8.760845,11.760833
0.7930,3.000000,11.760897,8.760845,11.760897
0.7940,3.000000,11.470230,8.470228,11.470230
0.7950,3.000000,10.999967,8.000000,10.999967
0.7960,3.000000,10.529820,7.529772,10.529820
0.7970,3.000000,10.239154,7.239155,10.239154
0.7980,3.000000,10.239071,7.239155,10.239071
0.7990,3.000000,10.529711,7.529772,10.529711
0.8000,3.000000,10.999961,8.000000,10.999961
0.8010,3.000000,11.470322,8.470228,11.470322
0.8020,3.000000,11.760826,8.760845,11.760826
0.8030,3.000000,11.760806,8.760845,11.760806
0.8040,3.000000,11.470233,8.470228,11.470233
0.8050,3.000000,10.999981,8.000000,10.999981
0.8060,3.000000,10.529687,7.529772,10.529687
0.8070,3.000000,10.239163,7.239155,10.239163
0.8080,3.000000,10.239103,7.239155,10.239103
0.8090,3.000000,10.529751,7.529772,10.529751
0.8100,3.000000,10.999998,8.000000,10.999998
0.8110,3.000000,11.470158,8.470228,11.470158
0.8120,3.000000,11.760845,8.760845,11.760845
0.8130,3.000000,11.760907,8.760845,11.760907
0.8140,3.000000,11.470272,8.470228,11.470272
0.8150,3.000000,10.999960,8.000000,10.999960
0.8160,3.000000,10.529808,7.529772,10.529808
0.8170,3.000000,10.239207,7.239155,10.239207
0.8180,3.000000,10.239168,7.239155,10.239168
0.8190,3.000000,10.529664,7.529772,10.529664
0.8200,3.000000,10.999958,8.000000,10.999958
0.8210,3.000000,11.470182,8.470228,11.470182
0.8220,3.000000,11.760919,8.760845,11.760919
0.8230,3.000000,11.760792,8.760845,11.760792
0.8240,3.000000,11.470147,8.470228,11.470147
0.8250,3.000000,11.000045,8.000000,11.000045
0.8260,3.000000,10.529742,7.529772,10.529742
0.8270,3.000000,10.239079,7.239155,10.239079
0.8280,3.000000,10.239173,7.239155,10.239173
0.8290,3.000000,10.529725,7.529772,10.529725
0.8300,3.000000,10.999963,8.000000,10.999963
0.8310,3.000000,11.470241,8.470228,11.470241
0.8320,3.000000,11.760883,8.760845,11.760883
0.8330,3.000000,11.760829,8.760845,11.760829
0.8340,3.000000,11.470215,8.470228,11.470215
0.8350,3.000000,10.999948,8.000000,10.999948
0.8360,3.000000,10.529816,7.529772,10.529816
0.8370,3.002798,10.241893,7.239155,10.241893
0.8380,3.002957,10.242175,7.239155,10.242175
0.8390,3.003123,10.532921,7.529772,10.532921
0.8400,3.003297,11.003339,8.000000,11.003339
0.8410,3.003479,11.473723,8.470228,11.473723
0.8420,3.003668,11.764453,8.760845,11.764453
0.8430,3.003866,11.764653,8.760845,11.764653
0.8440,3.004072,11.474342,8.470228,11.474342
0.8450,3.004287,11.004322,8.000000,11.004322
0.8460,3.004510,10.534329,7.529772,10.534329
0.8470,3.004743,10.243812,7.239155,10.243812
0.8480,3.004985,10.244197,7.239155,10.244197
0.8490,3.005236,10.534977,7.529772,10.534977
0.8500,3.005497,11.005496,8.000000,11.005496
0.8510,3.005767,11.476007,8.470228,11.476007
0.8520,3.006048,11.766915,8.760845,11.766915
0.8530,3.006339,11.767135,8.760845,11.767135
0.8540,3.006639,11.476852,8.470228,11.476852
0.8550,3.006951,11.006823,8.000000,11.006823
0.8560,3.007273,10.536985,7.529772,10.536985
0.8570,3.007605,10.246742,7.239155,10.246742
0.8580,3.007949,10.247072,7.239155,10.247072
0.8590,3.008303,10.538219,7.529772,10.538219
0.8600,3.008669,11.008622,8.000000,11.008622
0.8610,3.009045,11.479178,8.470228,11.479178
0.8620,3.009432,11.770302,8.760845,11.770302
0.8630,3.009831,11.770658,8.760845,11.770658
0.8640,3.010241,11.480352,8.470228,11.480352
0.8650,3.010662,11.010631,8.000000,11.010631
0.8660,3.011094,10.540839,7.529772,10.540839
0.8670,3.011537,10.250577,7.239155,10.250577
0.8680,3.011991,10.251131,7.239155,10.251131
0.8690,3.012456,10.542163,7.529772,10.542163
0.8700,3.012932,11.013006,8.000000,11.013006
0.8710,3.013419,11.483641,8.470228,11.483641
0.8720,3.013916,11.774913,8.760845,11.774913
0.8730,3.014424,11.775326,8.760845,11.775326
0.8740,3.014942,11.485220,8.470228,11.485220
0.8750,3.015469,11.015423,8.000000,11.015423
0.8760,3.016007,10.545787,7.529772,10.545787
0.8770,3.016554,10.255753,7.239155,10.255753
0.8780,3.017111,10.256278,7.239155,10.256278
0.8790,3.017676,10.547544,7.529772,10.547544
0.8800,3.018250,11.018265,8.000000,11.018265
0.8810,3.018832,11.489112,8.470228,11.489112
0.8820,3.019421,11.780239,8.760845,11.780239
0.8830,3.020018,11.780838,8.760845,11.780838
0.8840,3.020622,11.490840,8.470228,11.490840
0.8850,3.021233,11.021162,8.000000,11.021162
0.8860,3.021849,10.551538,7.529772,10.551538
0.8870,3.022470,10.261668,7.239155,10.261668
0.8880,3.023097,10.262320,7.239155,10.262320
0.8890,3.023728,10.553525,7.529772,10.553525
0.8900,3.024362,11.024404,8.000000,11.024404
0.8910,3.025000,11.495266,8.470228,11.495266
0.8920,3.025640,11.786505,8.760845,11.786505
0.8930,3.026282,11.787027,8.760845,11.787027
0.8940,3.026924,11.497212,8.470228,11.497212
0.8950,3.027568,11.027527,8.000000,11.027527
0.8960,3.028211,10.558038,7.529772,10.558038
0.8970,3.028853,10.268010,7.239155,10.268010
0.8980,3.029493,10.268679,7.239155,10.268679
0.8990,3.030130,10.559839,7.529772,10.559839
0.9000,3.030765,11.030750,8.000000,11.030750
0.9010,3.031395,11.501691,8.470228,11.501691
0.9020,3.032020,11.792901,8.760845,11.792901
0.9030,3.032640,11.793571,8.760845,11.793571
0.9040,3.033253,11.503514,8.470228,11.503514
0.9050,3.033859,11.033792,8.000000,11.033792
0.9060,3.034457,10.564278,7.529772,10.564278
0.9070,3.035045,10.274204,7.239155,10.274204
0.9080,3.035625,10.274671,7.239155,10.274671
0.9090,3.036193,10.565960,7.529772,10.565960
0.9100,3.036750,11.036774,8.000000,11.036774
0.9110,3.037295,11.507491,8.470228,11.507491
0.9120,3.037828,11.798634,8.760845,11.798634
0.9130,3.038346,11.799197,8.760845,11.799197
0.9140,3.038850,11.509204,8.470228,11.509204
0.9150,3.039339,11.039334,8.000000,11.039334
0.9160,3.039811,10.569534,7.529772,10.569534
0.9170,3.040267,10.279452,7.239155,10.279452
0.9180,3.040706,10.279784,7.239155,10.279784
0.9190,3.041126,10.570936,7.529772,10.570936
0.9200,3.041528,11.041496,8.000000,11.041496
0.9210,3.041911,11.512092,8.470228,11.512092
0.9220,3.042273,11.803142,8.760845,11.803142
0.9230,3.042615,11.803432,8.760845,11.803432
0.9240,3.042936,11.513185,8.470228,11.513185
0.9250,3.043235,11.043144,8.000000,11.043144
0.9260,3.043512,10.573297,7.529772,10.573297
0.9270,3.043767,10.282801,7.239155,10.282801
0.9280,3.043998,10.283209,7.239155,10.283209
0.9290,3.044207,10.573998,7.529772,10.573998
0.9300,3.044391,11.044453,8.000000,11.044453
0.9310,3.044552,11.514702,8.470228,11.514702
0.9320,3.044688,11.805625,8.760845,11.805625
0.9330,3.044800,11.805640,8.760845,11.805640
0.9340,3.044887,11.515092,8.470228,11.515092
0.9350,3.044950,11.045057,8.000000,11.045057
0.9360,3.044987,10.574755,7.529772,10.574755
0.9370,3.045000,10.284156,7.239155,10.284156
0.9380,3.044988,10.284089,7.239155,10.284089
0.9390,3.044950,10.574703,7.529772,10.574703
0.9400,3.044888,11.044984,8.000000,11.044984
0.9410,3.044801,11.515034,8.470228,11.515034
0.9420,3.044689,11.805570,8.760845,11.805570
0.9430,3.044553,11.805439,8.760845,11.805439
0.9440,3.044392,11.514543,8.470228,11.514543
0.9450,3.044208,11.044218,8.000000,11.044218
0.9460,3.044000,10.573808,7.529772,10.573808
0.9470,3.043768,10.282978,7.239155,10.282978
0.9480,3.043514,10.282625,7.239155,10.282625
0.9490,3.043237,10.572916,7.529772,10.572916
0.9500,3.042938,11.042932,8.000000,11.042932
0.9510,3.042617,11.512869,8.470228,11.512869
0.9520,3.042275,11.803149,8.760845,11.803149
0.9530,3.041913,11.802763,8.760845,11.802763
0.9540,3.041531,11.511768,8.470228,11.511768
0.9550,3.041129,11.041053,8.000000,11.041053
0.9560,3.040709,10.570437,7.529772,10.570437
0.9570,3.040271,10.279491,7.239155,10.279491
0.9580,3.039815,10.278963,7.239155,10.278963
0.9590,3.039342,10.569114,7.529772,10.569114
0.9600,3.038854,11.038831,8.000000,11.038831
0.9610,3.038350,11.508561,8.470228,11.508561
0.9620,3.037832,11.798713,8.760845,11.798713
0.9630,3.037301,11.798105,8.760845,11.798105
0.9640,3.036756,11.506979,8.470228,11.506979
0.9650,3.036199,11.036100,8.000000,11.036100
0.9660,3.035631,10.565454,7.529772,10.565454
0.9670,3.035052,10.274222,7.239155,10.274222
0.9680,3.034464,10.273612,7.239155,10.273612
0.9690,3.033867,10.563661,7.529772,10.563661
0.9700,3.033262,11.033234,8.000000,11.033234
0.9710,3.032649,11.502937,8.470228,11.502937
0.9720,3.032030,11.792841,8.760845,11.792841
0.9730,3.031405,11.792318,8.760845,11.792318
0.9740,3.030776,11.500994,8.470228,11.500994
0.9750,3.030142,11.030195,8.000000,11.030195
0.9760,3.029506,10.559326,7.529772,10.559326
0.9770,3.028866,10.268042,7.239155,10.268042
0.9780,3.028225,10.267424,7.239155,10.267424
0.9790,3.027583,10.557395,7.529772,10.557395
0.9800,3.026941,11.026947,8.000000,11.026947
0.9810,3.026299,11.496545,8.470228,11.496545
0.9820,3.025659,11.786439,8.760845,11.786439
0.9830,3.025020,11.785842,8.760845,11.785842
0.9840,3.024384,11.494518,8.470228,11.494518
0.9850,3.023751,11.023745,8.000000,11.023745
0.9860,3.023121,10.552928,7.529772,10.552928
0.9870,3.022497,10.261694,7.239155,10.261694
0.9880,3.021877,10.261083,7.239155,10.261083
0.9890,3.021262,10.550896,7.529772,10.550896
0.9900,3.020654,11.020572,8.000000,11.020572
0.9910,3.020052,11.490409,8.470228,11.490409
0.9920,3.019457,11.780264,8.760845,11.780264
0.9930,3.018869,11.779728,8.760845,11.779728
0.9940,3.018290,11.488501,8.470228,11.488501
0.9950,3.017718,11.017725,8.000000,11.017725
0.9960,3.017156,10.546933,7.529772,10.546933
0.9970,3.016602,10.255778,7.239155,10.255778
0.9980,3.016058,10.255138,7.239155,10.255138
0.9990,3.015523,10.545381,7.529772,10.545381
1.0000,3.014999,11.015042,8.000000,11.015042
1.0010,3.014484,11.484654,8.470228,11.484654
1.0020,3.013980,11.774790,8.760845,11.774790
1.0030,3.013487,11.774365,8.760845,11.774365
1.0040,3.013004,11.483234,8.470228,11.483234
1.0050,3.012532,11.012543,8.000000,11.012543
1.0060,3.012072,10.541781,7.529772,10.541781
1.0070,3.011622,10.250777,7.239155,10.250777
1.0080,3.011184,10.250335,7.239155,10.250335
1.0090,3.010757,10.540419,7.529772,10.540419
1.0100,3.010342,11.010299,8.000000,11.010299
1.0110,3.009938,11.480242,8.470228,11.480242
1.0120,3.009545,11.770441,8.760845,11.770441
1.0130,3.009164,11.769931,8.760845,11.769931
1.0140,3.008794,11.478992,8.470228,11.478992
1.0150,3.008436,11.008411,8.000000,11.008411
1.0160,3.008089,10.537785,7.529772,10.537785
1.0170,3.007753,10.247017,7.239155,10.247017
1.0180,3.007429,10.246473,7.239155,10.246473
1.0190,3.007115,10.536830,7.529772,10.536830
1.0200,3.006812,11.006807,8.000000,11.006807
1.0210,3.006521,11.476767,8.470228,11.476767
1.0220,3.006240,11.767155,8.760845,11.767155
1.0230,3.005969,11.766740,8.760845,11.766740
1.0240,3.005709,11.475931,8.470228,11.475931
1.0250,3.005459,11.005453,8.000000,11.005453
1.0260,3.005220,10.534974,7.529772,10.534974
1.0270,3.004990,10.244179,7.239155,10.244179
1.0280,3.004770,10.243905,7.239155,10.243905
1.0290,3.004560,10.534310,7.529772,10.534310
1.0300,3.004359,11.004246,8.000000,11.004246
1.0310,3.004167,11.474441,8.470228,11.474441
1.0320,3.003984,11.764760,8.760845,11.764760
1.0330,3.003811,11.764707,8.760845,11.764707
1.0340,3.003645,11.473862,8.470228,11.473862
1.0350,3.003488,11.003554,8.000000,11.003554
1.0360,3.003340,10.533029,7.529772,10.533029
1.0370,3.003199,10.242257,7.239155,10.242257
1.0380,3.003066,10.242389,7.239155,10.242389
1.0390,3.002941,10.532670,7.529772,10.532670
1.0400,3.002824,11.002956,8.000000,11.002956
1.0410,3.002713,11.472988,8.470228,11.472988
1.0420,3.002610,11.763511,8.760845,11.763511
1.0430,3.002514,11.763407,8.760845,11.763407
1.0440,3.002424,11.472659,8.470228,11.472659
1.0450,3.002340,11.002359,8.000000,11.002359
1.0460,3.002264,10.532035,7.529772,10.532035
1.0470,3.002193,10.241470,7.239155,10.241470
1.0480,3.002128,10.241350,7.239155,10.241350
1.0490,3.002069,10.531913,7.529772,10.531913
1.0500,3.002015,11.001919,8.000000,11.001919
1.0510,3.001968,11.472321,8.470228,11.472321
1.0520,3.001925,11.762657,8.760845,11.762657
1.0530,3.001888,11.762703,8.760845,11.762703
1.0540,3.001855,11.472060,8.470228,11.472060
1.0550,3.001828,11.001784,8.000000,11.001784
1.0560,3.001805,10.531646,7.529772,10.531646
1.0570,3.001787,10.240861,7.239155,10.240861
1.0580,3.001773,10.240914,7.239155,10.240914
1.0590,3.001764,10.531569,7.529772,10.531569
1.0600,3.001759,11.001795,8.000000,11.001795
1.0610,3.001758,11.471910,8.470228,11.471910
1.0620,3.001761,11.762580,8.760845,11.762580
1.0630,3.001769,11.762539,8.760845,11.762539
1.0640,3.001780,11.472004,8.470228,11.472004
1.0650,3.001794,11.001703,8.000000,11.001703
1.0660,3.001813,10.531581,7.529772,10.531581
1.0670,3.001834,10.240985,7.239155,10.240985
1.0680,3.001860,10.240992,7.239155,10.240992
1.0690,3.001889,10.531641,7.529772,10.531641
1.0700,3.001921,11.001909,8.000000,11.001909
1.0710,3.001956,11.472177,8.470228,11.472177
1.0720,3.001994,11.762814,8.760845,11.762814
1.0730,3.002036,11.762939,8.760845,11.762939
1.0740,3.002081,11.472161,8.470228,11.472161
1.0750,3.002128,11.002185,8.000000,11.002185
1.0760,3.002179,10.531914,7.529772,10.531914
1.0770,3.002233,10.241393,7.239155,10.241393
1.0780,3.002289,10.241471,7.239155,10.241471
1.0790,3.002348,10.532090,7.529772,10.532090
1.0800,3.002410,11.002363,8.000000,11.002363
1.0810,3.002475,11.472706,8.470228,11.472706
1.0820,3.002542,11.763339,8.760845,11.763339
1.0830,3.002612,11.763456,8.760845,11.763456
1.0840,3.002684,11.472904,8.470228,11.472904
1.0850,3.002759,11.002772,8.000000,11.002772
1.0860,3.002837,10.532572,7.529772,10.532572
1.0870,3.002917,10.242172,7.239155,10.242172
1.0880,3.002999,10.242200,7.239155,10.242200
1.0890,3.003084,10.532879,7.529772,10.532879
1.0900,3.003171,11.003076,8.000000,11.003076
1.0910,3.003260,11.473459,8.470228,11.473459
1.0920,3.003352,11.764133,8.760845,11.764133
1.0930,3.003446,11.764388,8.760845,11.764388
1.0940,3.003543,11.473732,8.470228,11.473732
1.0950,3.003641,11.003784,8.000000,11.003784
1.0960,3.003742,10.533451,7.529772,10.533451
1.0970,3.003845,10.243015,7.239155,10.243015
1.0980,3.003949,10.243092,7.239155,10.243092
1.0990,3.004056,10.533854,7.529772,10.533854
1.1000,3.004165,11.004068,8.000000,11.004068
1.1010,3.004276,11.474567,8.470228,11.474567
1.1020,3.004389,11.765280,8.760845,11.765280
1.1030,3.004504,11.765259,8.760845,11.765259
1.1040,3.004620,11.474921,8.470228,11.474921
1.1050,3.004739,11.004637,8.000000,11.004637
1.1060,3.004859,10.534690,7.529772,10.534690
1.1070,3.004981,10.244266,7.239155,10.244266
1.1080,3.005105,10.244308,7.239155,10.244308
1.1090,3.005230,10.535002,7.529772,10.535002
1.1100,3.005357,11.005469,8.000000,11.005469
1.1110,3.005485,11.475640,8.470228,11.475640
1.1120,3.005615,11.766422,8.760845,11.766422
1.1130,3.005746,11.766641,8.760845,11.766641
1.1140,3.005878,11.476088,8.470228,11.476088
1.1150,3.006012,11.006020,8.000000,11.006020
1.1160,3.006147,10.535972,7.529772,10.535972
1.1170,3.006284,10.245452,7.239155,10.245452
1.1180,3.006421,10.245475,7.239155,10.245475
1.1190,3.006559,10.536330,7.529772,10.536330
1.1200,3.006698,11.006742,8.000000,11.006742
1.1210,3.006839,11.477073,8.470228,11.477073
1.1220,3.006980,11.767906,8.760845,11.767906
1.1230,3.007121,11.767836,8.760845,11.767836
1.1240,3.007264,11.477554,8.470228,11.477554
1.1250,3.007407,11.007356,8.000000,11.007356
1.1260,3.007550,10.537297,7.529772,10.537297
1.1270,3.007694,10.246827,7.239155,10.246827
1.1280,3.007838,10.246920,7.239155,10.246920
1.1290,3.007982,10.537681,7.529772,10.537681
1.1300,3.008127,11.008050,8.000000,11.008050
1.1310,3.008272,11.478453,8.470228,11.478453
1.1320,3.008416,11.769225,8.760845,11.769225
1.1330,3.008561,11.769337,8.760845,11.769337
1.1340,3.008705,11.478896,8.470228,11.478896
1.1350,3.008849,11.008883,8.000000,11.008883
1.1360,3.008992,10.538712,7.529772,10.538712
1.1370,3.009135,10.248302,7.239155,10.248302
1.1380,3.009277,10.248338,7.239155,10.248338
1.1390,3.009419,10.539142,7.529772,10.539142
1.1400,3.009560,11.009631,8.000000,11.009631
1.1410,3.009700,11.479969,8.470228,11.479969
1.1420,3.009839,11.770710,8.760845,11.770710
1.1430,3.009976,11.770857,8.760845,11.770857
1.1440,3.010113,11.480373,8.470228,11.480373
1.1450,3.010248,11.010242,8.000000,11.010242
1.1460,3.010382,10.540157,7.529772,10.540157
1.1470,3.010514,10.249685,7.239155,10.249685
1.1480,3.010644,10.249726,7.239155,10.249726
1.1490,3.010773,10.540538,7.529772,10.540538
1.1500,3.010900,11.010887,8.000000,11.010887
1.1510,3.011025,11.481198,8.470228,11.481198
1.1520,3.011148,11.772087,8.760845,11.772087
1.1530,3.011269,11.771971,8.760845,11.771971
1.1540,3.011388,11.481579,8.470228,11.481579
1.1550,3.011504,11.011619,8.000000,11.011619
1.1560,3.011618,10.541315,7.529772,10.541315
1.1570,3.011729,10.250894,7.239155,10.250894
1.1580,3.011837,10.251114,7.239155,10.251114
1.1590,3.011943,10.541625,7.529772,10.541625
1.1600,3.012046,11.012065,8.000000,11.012065
1.1610,3.012147,11.482346,8.470228,11.482346
1.1620,3.012244,11.773074,8.760845,11.773074
1.1630,3.012338,11.773152,8.760845,11.773152
1.1640,3.012429,11.482680,8.470228,11.482680
1.1650,3.012517,11.012488,8.000000,11.012488
1.1660,3.012601,10.542322,7.529772,10.542322
1.1670,3.012682,10.251908,7.239155,10.251908
1.1680,3.012759,10.251925,7.239155,10.251925
1.1690,3.012833,10.542620,7.529772,10.542620
1.1700,3.012904,11.012840,8.000000,11.012840
1.1710,3.012970,11.483231,8.470228,11.483231
1.1720,3.013033,11.773852,8.760845,11.773852
1.1730,3.013093,11.773890,8.760845,11.773890
1.1740,3.013148,11.483317,8.470228,11.483317
1.1750,3.013199,11.013281,8.000000,11.013281
1.1760,3.013247,10.542906,7.529772,10.542906
1.1770,3.013290,10.252401,7.239155,10.252401
1.1780,3.013330,10.252398,7.239155,10.252398
1.1790,3.013365,10.543162,7.529772,10.543162
1.1800,3.013397,11.013342,8.000000,11.013342
1.1810,3.013424,11.483592,8.470228,11.483592
1.1820,3.013447,11.774342,8.760845,11.774342
1.1830,3.013466,11.774328,8.760845,11.774328
1.1840,3.013481,11.483687,8.470228,11.483687
1.1850,3.013491,11.013562,8.000000,11.013562
1.1860,3.013498,10.543232,7.529772,10.543232
1.1870,3.013500,10.252640,7.239155,10.252640
1.1880,3.013498,10.252655,7.239155,10.252655
1.1890,3.013491,10.543170,7.529772,10.543170
1.1900,3.013481,11.013370,8.000000,11.013370
1.1910,3.013466,11.483637,8.470228,11.483637
1.1920,3.013447,11.774317,8.760845,11.774317
1.1930,3.013424,11.774275,8.760845,11.774275
1.1940,3.013397,11.483775,8.470228,11.483775
1.1950,3.013365,11.013371,8.000000,11.013371
1.1960,3.013330,10.543066,7.529772,10.543066
1.1970,3.013290,10.252387,7.239155,10.252387
1.1980,3.013247,10.252454,7.239155,10.252454
1.1990,3.013199,10.542955,7.529772,10.542955
1.2000,3.013148,11.013106,8.000000,11.013106
1.2010,3.013093,11.483338,8.470228,11.483338
1.2020,3.013033,11.773809,8.760845,11.773809
1.2030,3.012970,11.773792,8.760845,11.773792
1.2040,3.012904,11.483251,8.470228,11.483251
1.2050,3.012833,11.012907,8.000000,11.012907
1.2060,3.012759,10.542600,7.529772,10.542600
1.2070,3.012682,10.251844,7.239155,10.251844
1.2080,3.012601,10.251798,7.239155,10.251798
1.2090,3.012516,10.542336,7.529772,10.542336
1.2100,3.012429,11.012477,8.000000,11.012477
1.2110,3.012338,11.482639,8.470228,11.482639
1.2120,3.012244,11.773088,8.760845,11.773088
1.2130,3.012147,11.772965,8.760845,11.772965
1.2140,3.012046,11.482320,8.470228,11.482320
1.2150,3.011943,11.011902,8.000000,11.011902
1.2160,3.011837,10.541634,7.529772,10.541634
1.2170,3.011729,10.250894,7.239155,10.250894
1.2180,3.011618,10.250771,7.239155,10.250771
1.2190,3.011504,10.541273,7.529772,10.541273
1.2200,3.011387,11.011353,8.000000,11.011353
1.2210,3.011269,11.481560,8.470228,11.481560
1.2220,3.011148,11.772050,8.760845,11.772050
1.2230,3.011025,11.771888,8.760845,11.771888
1.2240,3.010900,11.481122,8.470228,11.481122
1.2250,3.010773,11.010886,8.000000,11.010886
1.2260,3.010644,10.540530,7.529772,10.540530
1.2270,3.010514,10.249670,7.239155,10.249670
1.2280,3.010381,10.249393,7.239155,10.249393
1.2290,3.010248,10.540096,7.529772,10.540096
1.2300,3.010112,11.010184,8.000000,11.010184
1.2310,3.009976,11.480192,8.470228,11.480192
1.2320,3.009838,11.770704,8.760845,11.770704
1.2330,3.009699,11.770520,8.760845,11.770520
1.2340,3.009559,11.479769,8.470228,11.479769
1.2350,3.009418,11.009525,8.000000,11.009525
1.2360,3.009277,10.539043,7.529772,10.539043
1.2370,3.009134,10.248303,7.239155,10.248303
1.2380,3.008991,10.248141,7.239155,10.248141
1.2390,3.008848,10.538575,7.529772,10.538575
1.2400,3.008704,11.008669,8.000000,11.008669
1.2410,3.008560,11.478727,8.470228,11.478727
1.2420,3.008415,11.769259,8.760845,11.769259
1.2430,3.008270,11.769121,8.760845,11.769121
1.2440,3.008126,11.478324,8.470228,11.478324
1.2450,3.007981,11.007922,8.000000,11.007922
1.2460,3.007836,10.537712,7.529772,10.537712
1.2470,3.007692,10.246852,7.239155,10.246852
1.2480,3.007548,10.246707,7.239155,10.246707
1.2490,3.007404,10.537231,7.529772,10.537231
1.2500,3.007261,11.007136,8.000000,11.007136
1.2510,3.007118,11.477306,8.470228,11.477306
1.2520,3.006976,11.767859,8.760845,11.767859
1.2530,3.006835,11.767722,8.760845,11.767722
1.2540,3.006694,11.476906,8.470228,11.476906
1.2550,3.006555,11.006586,8.000000,11.006586
1.2560,3.006416,10.536244,7.529772,10.536244
1.2570,3.006278,10.245405,7.239155,10.245405
1.2580,3.006141,10.245324,7.239155,10.245324
1.2590,3.006005,10.535801,7.529772,10.535801
1.2600,3.005871,11.005847,8.000000,11.005847
1.2610,3.005738,11.475894,8.470228,11.475894
1.2620,3.005606,11.766500,8.760845,11.766500
1.2630,3.005475,11.766288,8.760845,11.766288
1.2640,3.005346,11.475542,8.470228,11.475542
1.2650,3.005218,11.005274,8.000000,11.005274
1.2660,3.005091,10.534917,7.529772,10.534917
1.2670,3.004966,10.244105,7.239155,10.244105
1.2680,3.004843,10.243954,7.239155,10.243954
1.2690,3.004721,10.534580,7.529772,10.534580
1.2700,3.004601,11.004631,8.000000,11.004631
1.2710,3.004482,11.474628,8.470228,11.474628
1.2720,3.004366,11.765170,8.760845,11.765170
1.2730,3.004251,11.765136,8.760845,11.765136
1.2740,3.004137,11.474308,8.470228,11.474308
1.2750,3.004026,11.004063,8.000000,11.004063
1.2760,3.003916,10.533723,7.529772,10.533723
1.2770,3.003808,10.242940,7.239155,10.242940
1.2780,3.003702,10.242878,7.239155,10.242878
1.2790,3.003597,10.533456,7.529772,10.533456
1.2800,3.003495,11.003513,8.000000,11.003513
1.2810,3.003394,11.473572,8.470228,11.473572
1.2820,3.003295,11.764115,8.760845,11.764115
1.2830,3.003198,11.764041,8.760845,11.764041
1.2840,3.003103,11.473400,8.470228,11.473400
1.2850,3.003010,11.003015,8.000000,11.003015
1.2860,3.002919,10.532700,7.529772,10.532700
1.2870,3.002830,10.241977,7.239155,10.241977
1.2880,3.002742,10.241921,7.239155,10.241921
1.2890,3.002657,10.532414,7.529772,10.532414
1.2900,3.002573,11.002524,8.000000,11.002524
1.2910,3.002491,11.472730,8.470228,11.472730
1.2920,3.002411,11.763292,8.760845,11.763292
1.2930,3.002333,11.763228,8.760845,11.763228
1.2940,3.002256,11.472434,8.470228,11.472434
1.2950,3.002182,11.002222,8.000000,11.002222
1.2960,3.002109,10.531901,7.529772,10.531901
1.2970,3.002038,10.241129,7.239155,10.241129
1.2980,3.001969,10.241085,7.239155,10.241085
1.2990,3.001902,10.531711,7.529772,10.531711
1.3000,3.001836,11.001850,8.000000,11.001850
1.3010,3.001772,11.472030,8.470228,11.472030
1.3020,3.001710,11.762615,8.760845,11.762615
1.3030,3.001649,11.762514,8.760845,11.762514
1.3040,3.001590,11.471847,8.470228,11.471847
1.3050,3.001533,11.001430,8.000000,11.001430
1.3060,3.001477,10.531271,7.529772,10.531271
1.3070,3.001423,10.240661,7.239155,10.240661
1.3080,3.001370,10.240549,7.239155,10.240549
1.3090,3.001319,10.531201,7.529772,10.531201
1.3100,3.001270,11.001299,8.000000,11.001299
1.3110,3.001222,11.471410,8.470228,11.471410
1.3120,3.001175,11.761998,8.760845,11.761998
1.3130,3.001130,11.761933,8.760845,11.761933
1.3140,3.001086,11.471310,8.470228,11.471310
1.3150,3.001044,11.001053,8.000000,11.001053
1.3160,3.001003,10.530831,7.529772,10.530831
1.3170,3.000963,10.240151,7.239155,10.240151
1.3180,3.000924,10.240101,7.239155,10.240101
1.3190,3.000887,10.530728,7.529772,10.530728
1.3200,3.000851,11.000883,8.000000,11.000883
1.3210,3.000816,11.471018,8.470228,11.471018
1.3220,3.000783,11.761607,8.760845,11.761607
1.3230,3.000750,11.761725,8.760845,11.761725
1.3240,3.000719,11.470843,8.470228,11.470843
1.3250,3.000689,11.000668,8.000000,11.000668
1.3260,3.000660,10.530445,7.529772,10.530445
1.3270,3.000631,10.239797,7.239155,10.239797
1.3280,3.000604,10.239744,7.239155,10.239744
1.3290,3.000578,10.530435,7.529772,10.530435
1.3300,3.000553,11.000611,8.000000,11.000611
1.3310,3.000529,11.470645,8.470228,11.470645
1.3320,3.000505,11.761305,8.760845,11.761305
1.3330,3.000483,11.761403,8.760845,11.761403
1.3340,3.000461,11.470713,8.470228,11.470713
1.3350,3.000441,11.000378,8.000000,11.000378
1.3360,3.000421,10.530213,7.529772,10.530213
1.3370,3.000401,10.239501,7.239155,10.239501
1.3380,3.000383,10.239424,7.239155,10.239424
1.3390,3.000365,10.530145,7.529772,10.530145
1.3400,3.000348,11.000349,8.000000,11.000349
1.3410,3.000332,11.470575,8.470228,11.470575
1.3420,3.000316,11.761154,8.760845,11.761154
1.3430,3.000301,11.761159,8.760845,11.761159
1.3440,3.000287,11.470487,8.470228,11.470487
1.3450,3.000273,11.000175,8.000000,11.000175
1.3460,3.000260,10.530127,7.529772,10.530127
1.3470,3.000247,10.239369,7.239155,10.239369
1.3480,3.000235,10.239477,7.239155,10.239477
1.3490,3.000224,10.529949,7.529772,10.529949
1.3500,3.000213,11.000193,8.000000,11.000193
1.3510,3.000202,11.470327,8.470228,11.470327
1.3520,3.000192,11.760985,8.760845,11.760985
1.3530,3.000182,11.760972,8.760845,11.760972
1.3540,3.000173,11.470392,8.470228,11.470392
1.3550,3.000164,11.000146,8.000000,11.000146
1.3560,3.000156,10.529873,7.529772,10.529873
1.3570,3.000148,10.239257,7.239155,10.239257
1.3580,3.000140,10.239291,7.239155,10.239291
1.3590,3.000133,10.529912,7.529772,10.529912
1.3600,3.000126,11.000261,8.000000,11.000261
1.3610,3.000119,11.470262,8.470228,11.470262
1.3620,3.000113,11.761033,8.760845,11.761033
1.3630,3.000107,11.760944,8.760845,11.760944
1.3640,3.000101,11.470353,8.470228,11.470353
1.3650,3.000096,11.000157,8.000000,11.000157
1.3660,3.000090,10.529851,7.529772,10.529851
1.3670,3.000085,10.239225,7.239155,10.239225
1.3680,3.000081,10.239160,7.239155,10.239160
1.3690,3.000076,10.529795,7.529772,10.529795
1.3700,3.000072,11.000079,8.000000,11.000079
1.3710,3.000068,11.470341,8.470228,11.470341
1.3720,3.000064,11.760922,8.760845,11.760922
1.3730,3.000061,11.760850,8.760845,11.760850
1.3740,3.000057,11.470301,8.470228,11.470301
1.3750,3.000054,11.000080,8.000000,11.000080
1.3760,3.000051,10.529839,7.529772,10.529839
1.3770,3.000048,10.239249,7.239155,10.239249
1.3780,3.000045,10.239130,7.239155,10.239130
1.3790,3.000043,10.529850,7.529772,10.529850
1.3800,3.000040,10.999942,8.000000,10.999942
1.3810,3.000038,11.470255,8.470228,11.470255
1.3820,3.000035,11.760877,8.760845,11.760877
1.3830,3.000033,11.760981,8.760845,11.760981
1.3840,3.000031,11.470320,8.470228,11.470320
1.3850,3.000030,11.000011,8.000000,11.000011
1.3860,3.000028,10.529794,7.529772,10.529794
1.3870,3.000026,10.239163,7.239155,10.239163
1.3880,3.000024,10.239132,7.239155,10.239132
1.3890,3.000023,10.529853,7.529772,10.529853
1.3900,3.000022,11.000022,8.000000,11.000022
1.3910,3.000020,11.470289,8.470228,11.470289
1.3920,3.000019,11.760910,8.760845,11.760910
1.3930,3.000018,11.760769,8.760845,11.760769
1.3940,3.000017,11.470195,8.470228,11.470195
1.3950,3.000016,11.000073,8.000000,11.000073
1.3960,3.000015,10.529764,7.529772,10.529764
1.3970,3.000014,10.239044,7.239155,10.239044
1.3980,3.000013,10.239081,7.239155,10.239081
1.3990,3.000012,10.529781,7.529772,10.529781
1.4000,3.000011,10.999943,8.000000,10.999943
1.4010,3.000011,11.470272,8.470228,11.470272
1.4020,3.000010,11.760854,8.760845,11.760854
1.4030,3.000009,11.760831,8.760845,11.760831
1.4040,3.000009,11.470232,8.470228,11.470232
1.4050,3.000008,11.000025,8.000000,11.000025
1.4060,3.000008,10.529758,7.529772,10.529758
1.4070,3.000007,10.239143,7.239155,10.239143
1.4080,3.000007,10.239231,7.239155,10.239231
1.4090,3.000006,10.529756,7.529772,10.529756
1.4100,3.000006,10.999934,8.000000,10.999934
1.4110,3.000005,11.470220,8.470228,11.470220
1.4120,3.000005,11.760839,8.760845,11.760839
1.4130,3.000005,11.760846,8.760845,11.760846
1.4140,3.000004,11.470301,8.470228,11.470301
1.4150,3.000004,10.999940,8.000000,10.999940
1.4160,3.000004,10.529698,7.529772,10.529698
1.4170,3.000003,10.239135,7.239155,10.239135
1.4180,3.000003,10.239251,7.239155,10.239251
1.4190,3.000003,10.529716,7.529772,10.529716
1.4200,3.000003,11.000017,8.000000,11.000017
1.4210,3.000003,11.470209,8.470228,11.470209
1.4220,3.000002,11.760795,8.760845,11.760795
1.4230,3.000002,11.760768,8.760845,11.760768
1.4240,3.000002,11.470389,8.470228,11.470389
1.4250,3.000002,10.999975,8.000000,10.999975
1.4260,3.000002,10.529756,7.529772,10.529756
1.4270,3.000002,10.239194,7.239155,10.239194
1.4280,3.000002,10.239155,7.239155,10.239155
1.4290,3.000001,10.529791,7.529772,10.529791
1.4300,3.000001,11.000058,8.000000,11.000058
1.4310,3.000001,11.470237,8.470228,11.470237
1.4320,3.000001,11.760809,8.760845,11.760809
1.4330,3.000001,11.760848,8.760845,11.760848
1.4340,3.000001,11.470231,8.470228,11.470231
1.4350,3.000001,10.999934,8.000000,10.999934
1.4360,3.000001,10.529755,7.529772,10.529755
1.4370,3.000001,10.239124,7.239155,10.239124
1.4380,3.000001,10.239183,7.239155,10.239183
1.4390,3.000001,10.529832,7.529772,10.529832
1.4400,3.000001,11.000001,8.000000,11.000001
1.4410,3.000001,11.470260,8.470228,11.470260
1.4420,3.000001,11.760842,8.760845,11.760842
1.4430,3.000000,11.760762,8.760845,11.760762
1.4440,3.000000,11.470137,8.470228,11.470137
1.4450,3.000000,11.000035,8.000000,11.000035
1.4460,3.000000,10.529789,7.529772,10.529789
1.4470,3.000000,10.239163,7.239155,10.239163
1.4480,3.000000,10.239194,7.239155,10.239194
1.4490,3.000000,10.529821,7.529772,10.529821
1.4500,3.000000,11.000018,8.000000,11.000018
1.4510,3.000000,11.470087,8.470228,11.470087
1.4520,3.000000,11.760802,8.760845,11.760802
1.4530,3.000000,11.760779,8.760845,11.760779
1.4540,3.000000,11.470289,8.470228,11.470289
1.4550,3.000000,10.999920,8.000000,10.999920
1.4560,3.000000,10.529618,7.529772,10.529618
1.4570,3.000000,10.239200,7.239155,10.239200
1.4580,3.000000,10.239165,7.239155,10.239165
1.4590,3.000000,10.529685,7.529772,10.529685
1.4600,3.000000,10.999994,8.000000,10.999994
1.4610,3.000000,11.470190,8.470228,11.470190
1.4620,3.000000,11.760796,8.760845,11.760796
1.4630,3.000000,11.760890,8.760845,11.760890
1.4640,3.000000,11.470106,8.470228,11.470106
1.4650,3.000000,10.999983,8.000000,10.999983
1.4660,3.000000,10.529695,7.529772,10.529695
1.4670,3.000000,10.239182,7.239155,10.239182
1.4680,3.000000,10.239152,7.239155,10.239152
1.4690,3.000000,10.529765,7.529772,10.529765
1.4700,3.000000,11.000114,8.000000,11.000114
1.4710,3.000000,11.470191,8.470228,11.470191
1.4720,3.000000,11.760858,8.760845,11.760858
1.4730,3.000000,11.760738,8.760845,11.760738
1.4740,3.000000,11.470196,8.470228,11.470196
1.4750,3.000000,10.999974,8.000000,10.999974
1.4760,3.000000,10.529763,7.529772,10.529763
1.4770,3.000000,10.239104,7.239155,10.239104
1.4780,3.000000,10.239120,7.239155,10.239120
1.4790,3.000000,10.529793,7.529772,10.529793
1.4800,3.000000,11.000071,8.000000,11.000071
1.4810,3.000000,11.470211,8.470228,11.470211
1.4820,3.000000,11.760793,8.760845,11.760793
1.4830,3.000000,11.760922,8.760845,11.760922
1.4840,3.000000,11.470190,8.470228,11.470190
1.4850,3.000000,11.000049,8.000000,11.000049
1.4860,3.000000,10.529859,7.529772,10.529859
1.4870,3.000000,10.239092,7.239155,10.239092
1.4880,3.000000,10.239178,7.239155,10.239178
1.4890,3.000000,10.529792,7.529772,10.529792
1.4900,3.000000,10.999999,8.000000,10.999999
1.4910,3.000000,11.470195,8.470228,11.470195
1.4920,3.000000,11.760816,8.760845,11.760816
1.4930,3.000000,11.760825,8.760845,11.760825
1.4940,3.000000,11.470211,8.470228,11.470211
1.4950,3.000000,11.000022,8.000000,11.000022
1.4960,3.000000,10.529718,7.529772,10.529718
1.4970,3.000000,10.239104,7.239155,10.239104
1.4980,3.000000,10.239180,7.239155,10.239180
1.4990,3.000000,10.529732,7.529772,10.529732
1.5000,3.000000,11.000050,8.000000,11.000050
1.5010,3.000000,11.470299,8.470228,11.470299
1.5020,3.000000,11.760755,8.760845,11.760755
1.5030,3.000000,11.760853,8.760845,11.760853
1.5040,3.000000,11.470239,8.470228,11.470239
1.5050,3.000000,11.000040,8.000000,11.000040
1.5060,3.000000,10.529873,7.529772,10.529873
1.5070,3.000000,10.239224,7.239155,10.239224
1.5080,3.000000,10.239103,7.239155,10.239103
1.5090,3.000000,10.529704,7.529772,10.529704
1.5100,3.000000,11.000070,8.000000,11.000070
1.5110,3.000000,11.470334,8.470228,11.470334
1.5120,3.000000,11.760874,8.760845,11.760874
1.5130,3.000000,11.760827,8.760845,11.760827
1.5140,3.000000,11.470156,8.470228,11.470156
1.5150,3.000000,11.000037,8.000000,11.000037
1.5160,3.000000,10.529864,7.529772,10.529864
1.5170,3.000000,10.239171,7.239155,10.239171
1.5180,3.000000,10.239288,7.239155,10.239288
1.5190,3.000000,10.529800,7.529772,10.529800
1.5200,3.000000,11.000056,8.000000,11.000056
1.5210,3.000000,11.470259,8.470228,11.470259
1.5220,3.000000,11.760935,8.760845,11.760935
1.5230,3.000000,11.760832,8.760845,11.760832
1.5240,3.000000,11.470242,8.470228,11.470242
1.5250,3.000000,10.999979,8.000000,10.999979
1.5260,3.000000,10.529695,7.529772,10.529695
1.5270,3.000000,10.239181,7.239155,10.239181
1.5280,3.000000,10.239117,7.239155,10.239117
1.5290,3.000000,10.529789,7.529772,10.529789
1.5300,3.000000,11.000031,8.000000,11.000031
1.5310,3.000000,11.470166,8.470228,11.470166
1.5320,3.000000,11.760874,8.760845,11.760874
1.5330,3.000000,11.760794,8.760845,11.760794
1.5340,3.000000,11.470247,8.470228,11.470247
1.5350,3.000000,10.999968,8.000000,10.999968
1.5360,3.000000,10.529742,7.529772,10.529742
1.5370,3.000000,10.239222,7.239155,10.239222
1.5380,3.000000,10.239034,7.239155,10.239034
1.5390,3.000000,10.529899,7.529772,10.529899
1.5400,3.000000,11.000104,8.000000,11.000104
1.5410,3.000000,11.470234,8.470228,11.470234
1.5420,3.000000,11.760895,8.760845,11.760895
1.5430,3.000000,11.760801,8.760845,11.760801
1.5440,3.000000,11.470324,8.470228,11.470324
1.5450,3.000000,10.999985,8.000000,10.999985
1.5460,3.000000,10.529799,7.529772,10.529799
1.5470,3.000000,10.239139,7.239155,10.239139
1.5480,3.000000,10.239252,7.239155,10.239252
1.5490,3.000000,10.529833,7.529772,10.529833
1.5500,3.000000,11.000003,8.000000,11.000003
1.5510,3.000000,11.470250,8.470228,11.470250
1.5520,3.000000,11.760903,8.760845,11.760903
1.5530,3.000000,11.760845,8.760845,11.760845
1.5540,3.000000,11.470281,8.470228,11.470281
1.5550,3.000000,10.999937,8.000000,10.999937
1.5560,3.000000,10.529756,7.529772,10.529756
1.5570,3.000000,10.239181,7.239155,10.239181
1.5580,3.000000,10.239175,7.239155,10.239175
1.5590,3.000000,10.529793,7.529772,10.529793
1.5600,3.000000,11.000064,8.000000,11.000064
1.5610,3.000000,11.470336,8.470228,11.470336
1.5620,3.000000,11.760820,8.760845,11.760820
1.5630,3.000000,11.760901,8.760845,11.760901
1.5640,3.000000,11.470260,8.470228,11.470260
1.5650,3.000000,11.000075,8.000000,11.000075
1.5660,3.000000,10.529801,7.529772,10.529801
1.5670,3.000000,10.239165,7.239155,10.239165
1.5680,3.000000,10.239212,7.239155,10.239212
1.5690,3.000000,10.529750,7.529772,10.529750
1.5700,3.000000,10.999909,8.000000,10.999909
1.5710,3.000000,11.470280,8.470228,11.470280
1.5720,3.000000,11.760868,8.760845,11.760868
1.5730,3.000000,11.760809,8.760845,11.760809
1.5740,3.000000,11.470246,8.470228,11.470246
1.5750,3.000000,10.999977,8.000000,10.999977
1.5760,3.000000,10.529794,7.529772,10.529794
1.5770,3.000000,10.239094,7.239155,10.239094
1.5780,3.000000,10.239207,7.239155,10.239207
1.5790,3.000000,10.529821,7.529772,10.529821
1.5800,3.000000,10.999942,8.000000,10.999942
1.5810,3.000000,11.470244,8.470228,11.470244
1.5820,3.000000,11.760776,8.760845,11.760776
1.5830,3.000000,11.760922,8.760845,11.760922
1.5840,3.000000,11.470254,8.470228,11.470254
1.5850,3.000000,11.000064,8.000000,11.000064
1.5860,3.000000,10.529679,7.529772,10.529679
1.5870,3.000000,10.239218,7.239155,10.239218
1.5880,3.000000,10.239160,7.239155,10.239160
1.5890,3.000000,10.529783,7.529772,10.529783
1.5900,3.000000,11.000002,8.000000,11.000002
1.5910,3.000000,11.470213,8.470228,11.470213
1.5920,3.000000,11.760966,8.760845,11.760966
1.5930,3.000000,11.760972,8.760845,11.760972
1.5940,3.000000,11.470310,8.470228,11.470310
1.5950,3.000000,10.999965,8.000000,10.999965
1.5960,3.000000,10.529816,7.529772,10.529816
1.5970,3.000000,10.239166,7.239155,10.239166
1.5980,3.000000,10.239097,7.239155,10.239097
1.5990,3.000000,10.529710,7.529772,10.529710
1.6000,3.000000,10.999950,8.000000,10.999950
1.6010,3.000000,11.470190,8.470228,11.470190
1.6020,3.000000,11.760944,8.760845,11.760944
1.6030,3.000000,11.760862,8.760845,11.760862
1.6040,3.000000,11.470299,8.470228,11.470299
1.6050,3.000000,10.999930,8.000000,10.999930
1.6060,3.000000,10.529744,7.529772,10.529744
1.6070,3.000000,10.239168,7.239155,10.239168
1.6080,3.000000,10.239164,7.239155,10.239164
1.6090,3.000000,10.529691,7.529772,10.529691
1.6100,3.000000,10.999946,8.000000,10.999946
1.6110,3.000000,11.470159,8.470228,11.470159
1.6120,3.000000,11.760908,8.760845,11.760908
1.6130,3.000000,11.760905,8.760845,11.760905
1.6140,3.000000,11.470272,8.470228,11.470272
1.6150,3.000000,10.999992,8.000000,10.999992
1.6160,3.000000,10.529726,7.529772,10.529726
1.6170,3.000000,10.239117,7.239155,10.239117
1.6180,3.000000,10.239160,7.239155,10.239160
1.6190,3.000000,10.529735,7.529772,10.529735
1.6200,3.000000,10.999956,8.000000,10.999956
1.6210,3.000000,11.470231,8.470228,11.470231
1.6220,3.000000,11.760820,8.760845,11.760820
1.6230,3.000000,11.760791,8.760845,11.760791
1.6240,3.000000,11.470300,8.470228,11.470300
1.6250,3.000000,11.000058,8.000000,11.000058
1.6260,3.000000,10.529770,7.529772,10.529770
1.6270,3.000000,10.239162,7.239155,10.239162
1.6280,3.000000,10.239105,7.239155,10.239105
1.6290,3.000000,10.529828,7.529772,10.529828
1.6300,3.000000,10.999899,8.000000,10.999899
1.6310,3.000000,11.470200,8.470228,11.470200
1.6320,3.000000,11.760817,8.760845,11.760817
1.6330,3.000000,11.760898,8.760845,11.760898
1.6340,3.000000,11.470202,8.470228,11.470202
1.6350,3.000000,11.000010,8.000000,11.000010
1.6360,3.000000,10.529861,7.529772,10.529861
1.6370,3.000000,10.239117,7.239155,10.239117
1.6380,3.000000,10.239122,7.239155,10.239122
1.6390,3.000000,10.529683,7.529772,10.529683
1.6400,3.000000,11.000040,8.000000,11.000040
1.6410,3.000000,11.470280,8.470228,11.470280
1.6420,3.000000,11.760830,8.760845,11.760830
1.6430,3.000000,11.760898,8.760845,11.760898
1.6440,3.000000,11.470145,8.470228,11.470145
1.6450,3.000000,11.000029,8.000000,11.000029
1.6460,3.000000,10.529800,7.529772,10.529800
1.6470,3.000000,10.239180,7.239155,10.239180
1.6480,3.000000,10.239170,7.239155,10.239170
1.6490,3.000000,10.529760,7.529772,10.529760
1.6500,3.000000,11.000078,8.000000,11.000078
1.6510,3.000000,11.470179,8.470228,11.470179
1.6520,3.000000,11.760813,8.760845,11.760813
1.6530,3.000000,11.760902,8.760845,11.760902
1.6540,3.000000,11.470266,8.470228,11.470266
1.6550,3.000000,10.999938,8.000000,10.999938
1.6560,3.000000,10.529665,7.529772,10.529665
1.6570,3.000000,10.239108,7.239155,10.239108
1.6580,3.000000,10.239168,7.239155,10.239168
1.6590,3.000000,10.529703,7.529772,10.529703
1.6600,3.000000,10.999853,8.000000,10.999853
1.6610,3.000000,11.470201,8.470228,11.470201
1.6620,3.000000,11.760838,8.760845,11.760838
1.6630,3.000000,11.760849,8.760845,11.760849
1.6640,3.000000,11.470141,8.470228,11.470141
1.6650,3.000000,10.999976,8.000000,10.999976
1.6660,3.000000,10.529831,7.529772,10.529831
1.6670,3.000000,10.239180,7.239155,10.239180
1.6680,3.000000,10.238982,7.239155,10.238982
1.6690,3.000000,10.529731,7.529772,10.529731
1.6700,3.000000,10.999961,8.000000,10.999961
1.6710,3.000000,11.470192,8.470228,11.470192
1.6720,3.000000,11.760851,8.760845,11.760851
1.6730,3.000000,11.760898,8.760845,11.760898
1.6740,3.000000,11.470158,8.470228,11.470158
1.6750,3.000000,10.999984,8.000000,10.999984
1.6760,3.000000,10.529839,7.529772,10.529839
1.6770,3.000000,10.239105,7.239155,10.239105
1.6780,3.000000,10.239267,7.239155,10.239267
1.6790,3.000000,10.529935,7.529772,10.529935
1.6800,3.000000,11.000082,8.000000,11.000082
1.6810,3.000000,11.470264,8.470228,11.470264
1.6820,3.000000,11.760903,8.760845,11.760903
1.6830,3.000000,11.760873,8.760845,11.760873
1.6840,3.000000,11.470169,8.470228,11.470169
1.6850,3.000000,10.999906,8.000000,10.999906
1.6860,3.000000,10.529736,7.529772,10.529736
1.6870,3.000000,10.239260,7.239155,10.239260
1.6880,3.000000,10.239138,7.239155,10.239138
1.6890,3.000000,10.529737,7.529772,10.529737
1.6900,3.000000,10.999974,8.000000,10.999974
1.6910,3.000000,11.470186,8.470228,11.470186
1.6920,3.000000,11.760857,8.760845,11.760857
1.6930,3.000000,11.760768,8.760845,11.760768
1.6940,3.000000,11.470287,8.470228,11.470287
1.6950,3.000000,11.000089,8.000000,11.000089
1.6960,3.000000,10.529844,7.529772,10.529844
1.6970,3.000000,10.239170,7.239155,10.239170
1.6980,3.000000,10.239223,7.239155,10.239223
1.6990,3.000000,10.529739,7.529772,10.529739
1.7000,3.000000,11.000051,8.000000,11.000051
1.7010,3.000000,11.470207,8.470228,11.470207
1.7020,3.000000,11.761031,8.760845,11.761031
1.7030,3.000000,11.760887,8.760845,11.760887
1.7040,3.000000,11.470283,8.470228,11.470283
1.7050,3.000000,11.000000,8.000000,11.000000
1.7060,3.002798,10.532553,7.529772,10.532553
1.7070,3.002957,10.242079,7.239155,10.242079
1.7080,3.003123,10.242254,7.239155,10.242254
1.7090,3.003297,10.533132,7.529772,10.533132
1.7100,3.003479,11.003486,8.000000,11.003486
1.7110,3.003668,11.473929,8.470228,11.473929
1.7120,3.003866,11.764709,8.760845,11.764709
1.7130,3.004072,11.764893,8.760845,11.764893
1.7140,3.004287,11.474637,8.470228,11.474637
1.7150,3.004510,11.004442,8.000000,11.004442
1.7160,3.004743,10.534511,7.529772,10.534511
1.7170,3.004985,10.244178,7.239155,10.244178
1.7180,3.005236,10.244427,7.239155,10.244427
1.7190,3.005497,10.535162,7.529772,10.535162
1.7200,3.005767,11.005760,8.000000,11.005760
1.7210,3.006048,11.476227,8.470228,11.476227
1.7220,3.006339,11.767155,8.760845,11.767155
1.7230,3.006639,11.767680,8.760845,11.767680
1.7240,3.006951,11.477110,8.470228,11.477110
1.7250,3.007273,11.007284,8.000000,11.007284
1.7260,3.007605,10.537393,7.529772,10.537393
1.7270,3.007949,10.247179,7.239155,10.247179
1.7280,3.008303,10.247485,7.239155,10.247485
1.7290,3.008669,10.538397,7.529772,10.538397
1.7300,3.009045,11.009145,8.000000,11.009145
1.7310,3.009432,11.479611,8.470228,11.479611
1.7320,3.009831,11.770657,8.760845,11.770657
1.7330,3.010241,11.771032,8.760845,11.771032
1.7340,3.010662,11.480938,8.470228,11.480938
1.7350,3.011094,11.011050,8.000000,11.011050
1.7360,3.011537,10.541375,7.529772,10.541375
1.7370,3.011991,10.251143,7.239155,10.251143
1.7380,3.012456,10.251712,7.239155,10.251712
1.7390,3.012932,10.542732,7.529772,10.542732
1.7400,3.013419,11.013396,8.000000,11.013396
1.7410,3.013916,11.484030,8.470228,11.484030
1.7420,3.014424,11.775226,8.760845,11.775226
1.7430,3.014942,11.775730,8.760845,11.775730
1.7440,3.015469,11.485733,8.470228,11.485733
1.7450,3.016007,11.016032,8.000000,11.016032
1.7460,3.016554,10.546222,7.529772,10.546222
1.7470,3.017111,10.256180,7.239155,10.256180
1.7480,3.017676,10.256745,7.239155,10.256745
1.7490,3.018250,10.547985,7.529772,10.547985
1.7500,3.018832,11.018771,8.000000,11.018771
1.7510,3.019421,11.489699,8.470228,11.489699
1.7520,3.020018,11.780984,8.760845,11.780984
1.7530,3.020622,11.781440,8.760845,11.781440
1.7540,3.021233,11.491504,8.470228,11.491504
1.7550,3.021849,11.021899,8.000000,11.021899
1.7560,3.022470,10.552200,7.529772,10.552200
1.7570,3.023097,10.262272,7.239155,10.262272
1.7580,3.023728,10.262886,7.239155,10.262886
1.7590,3.024362,10.554123,7.529772,10.554123
1.7600,3.025000,11.024935,8.000000,11.024935
1.7610,3.025640,11.495856,8.470228,11.495856
1.7620,3.026282,11.787150,8.760845,11.787150
1.7630,3.026924,11.787891,8.760845,11.787891
1.7640,3.027568,11.497786,8.470228,11.497786
1.7650,3.028211,11.028278,8.000000,11.028278
1.7660,3.028853,10.558672,7.529772,10.558672
1.7670,3.029493,10.268618,7.239155,10.268618
1.7680,3.030130,10.269318,7.239155,10.269318
1.7690,3.030765,10.560495,7.529772,10.560495
1.7700,3.031395,11.031406,8.000000,11.031406
1.7710,3.032020,11.502236,8.470228,11.502236
1.7720,3.032640,11.793516,8.760845,11.793516
1.7730,3.033253,11.794170,8.760845,11.794170
1.7740,3.033859,11.504005,8.470228,11.504005
1.7750,3.034457,11.034409,8.000000,11.034409
1.7760,3.035045,10.564698,7.529772,10.564698
1.7770,3.035625,10.274804,7.239155,10.274804
1.7780,3.036193,10.275384,7.239155,10.275384
1.7790,3.036750,10.566522,7.529772,10.566522
1.7800,3.037295,11.037363,8.000000,11.037363
1.7810,3.037828,11.508118,8.470228,11.508118
1.7820,3.038346,11.799256,8.760845,11.799256
1.7830,3.038850,11.799768,8.760845,11.799768
1.7840,3.039339,11.509579,8.470228,11.509579
1.7850,3.039811,11.039794,8.000000,11.039794
1.7860,3.040267,10.570062,7.529772,10.570062
1.7870,3.040706,10.279816,7.239155,10.279816
1.7880,3.041126,10.280271,7.239155,10.280271
1.7890,3.041528,10.571225,7.529772,10.571225
1.7900,3.041911,11.041882,8.000000,11.041882
1.7910,3.042273,11.512492,8.470228,11.512492
1.7920,3.042615,11.803407,8.760845,11.803407
1.7930,3.042936,11.803705,8.760845,11.803705
1.7940,3.043235,11.513398,8.470228,11.513398
1.7950,3.043512,11.043520,8.000000,11.043520
1.7960,3.043767,10.573490,7.529772,10.573490
1.7970,3.043998,10.282991,7.239155,10.282991
1.7980,3.044207,10.283384,7.239155,10.283384
1.7990,3.044391,10.574149,7.529772,10.574149
1.8000,3.044552,11.044572,8.000000,11.044572
1.8010,3.044688,11.514914,8.470228,11.514914
1.8020,3.044800,11.805559,8.760845,11.805559
1.8030,3.044887,11.805826,8.760845,11.805826
1.8040,3.044950,11.515259,8.470228,11.515259
1.8050,3.044987,11.045073,8.000000,11.045073
1.8060,3.045000,10.574771,7.529772,10.574771
1.8070,3.044988,10.284140,7.239155,10.284140
1.8080,3.044950,10.284148,7.239155,10.284148
1.8090,3.044888,10.574611,7.529772,10.574611
1.8100,3.044801,11.044753,8.000000,11.044753
1.8110,3.044689,11.515028,8.470228,11.515028
1.8120,3.044553,11.805356,8.760845,11.805356
1.8130,3.044392,11.805271,8.760845,11.805271
1.8140,3.044208,11.514443,8.470228,11.514443
1.8150,3.044000,11.044090,8.000000,11.044090
1.8160,3.043768,10.573627,7.529772,10.573627
1.8170,3.043514,10.282648,7.239155,10.282648
1.8180,3.043237,10.282311,7.239155,10.282311
1.8190,3.042938,10.572718,7.529772,10.572718
1.8200,3.042617,11.042621,8.000000,11.042621
1.8210,3.042275,11.512499,8.470228,11.512499
1.8220,3.041913,11.802728,8.760845,11.802728
1.8230,3.041531,11.802381,8.760845,11.802381
1.8240,3.041129,11.511361,8.470228,11.511361
1.8250,3.040709,11.040729,8.000000,11.040729
1.8260,3.040271,10.570091,7.529772,10.570091
1.8270,3.039815,10.279015,7.239155,10.279015
1.8280,3.039342,10.278413,7.239155,10.278413
1.8290,3.038854,10.568585,7.529772,10.568585
1.8300,3.038350,11.038331,8.000000,11.038331
1.8310,3.037832,11.508054,8.470228,11.508054
1.8320,3.037301,11.798100,8.760845,11.798100
1.8330,3.036756,11.797496,8.760845,11.797496
1.8340,3.036199,11.506405,8.470228,11.506405
1.8350,3.035631,11.035575,8.000000,11.035575
1.8360,3.035052,10.564905,7.529772,10.564905
1.8370,3.034464,10.273547,7.239155,10.273547
1.8380,3.033867,10.272915,7.239155,10.272915
1.8390,3.033262,10.563060,7.529772,10.563060
1.8400,3.032649,11.032598,8.000000,11.032598
1.8410,3.032030,11.502191,8.470228,11.502191
1.8420,3.031405,11.792310,8.760845,11.792310
1.8430,3.030776,11.791681,8.760845,11.791681
1.8440,3.030142,11.500367,8.470228,11.500367
1.8450,3.029506,11.029550,8.000000,11.029550
1.8460,3.028866,10.558538,7.529772,10.558538
1.8470,3.028225,10.267400,7.239155,10.267400
1.8480,3.027583,10.266689,7.239155,10.266689
1.8490,3.026941,10.556762,7.529772,10.556762
1.8500,3.026299,11.026331,8.000000,11.026331
1.8510,3.025659,11.495780,8.470228,11.495780
1.8520,3.025020,11.785882,8.760845,11.785882
1.8530,3.024384,11.785251,8.760845,11.785251
1.8540,3.023751,11.493952,8.470228,11.493952
1.8550,3.023121,11.023099,8.000000,11.023099
1.8560,3.022497,10.552340,7.529772,10.552340
1.8570,3.021877,10.261056,7.239155,10.261056
1.8580,3.021262,10.260413,7.239155,10.260413
1.8590,3.020654,10.550406,7.529772,10.550406
1.8600,3.020052,11.019987,8.000000,11.019987
1.8610,3.019457,11.489690,8.470228,11.489690
1.8620,3.018869,11.779763,8.760845,11.779763
1.8630,3.018290,11.779054,8.760845,11.779054
1.8640,3.017718,11.488015,8.470228,11.488015
1.8650,3.017156,11.017252,8.000000,11.017252
1.8660,3.016602,10.546388,7.529772,10.546388
1.8670,3.016058,10.255185,7.239155,10.255185
1.8680,3.015523,10.254679,7.239155,10.254679
1.8690,3.014999,10.544795,7.529772,10.544795
1.8700,3.014484,11.014360,8.000000,11.014360
1.8710,3.013980,11.484322,8.470228,11.484322
1.8720,3.013487,11.774282,8.760845,11.774282
1.8730,3.013004,11.773925,8.760845,11.773925
1.8740,3.012532,11.482760,8.470228,11.482760
1.8750,3.012072,11.012035,8.000000,11.012035
1.8760,3.011622,10.541457,7.529772,10.541457
1.8770,3.011184,10.250192,7.239155,10.250192
1.8780,3.010757,10.249929,7.239155,10.249929
1.8790,3.010342,10.540112,7.529772,10.540112
1.8800,3.009938,11.009966,8.000000,11.009966
1.8810,3.009545,11.479807,8.470228,11.479807
1.8820,3.009164,11.770003,8.760845,11.770003
1.8830,3.008794,11.769630,8.760845,11.769630
1.8840,3.008436,11.478681,8.470228,11.478681
1.8850,3.008089,11.008187,8.000000,11.008187
1.8860,3.007753,10.537543,7.529772,10.537543
1.8870,3.007429,10.246502,7.239155,10.246502
1.8880,3.007115,10.246206,7.239155,10.246206
1.8890,3.006812,10.536638,7.529772,10.536638
1.8900,3.006521,11.006513,8.000000,11.006513
1.8910,3.006240,11.476503,8.470228,11.476503
1.8920,3.005969,11.766860,8.760845,11.766860
1.8930,3.005709,11.766630,8.760845,11.766630
1.8940,3.005459,11.475759,8.470228,11.475759
1.8950,3.005220,11.005170,8.000000,11.005170
1.8960,3.004990,10.534858,7.529772,10.534858
1.8970,3.004770,10.243963,7.239155,10.243963
1.8980,3.004560,10.243790,7.239155,10.243790
1.8990,3.004359,10.534245,7.529772,10.534245
1.9000,3.004167,11.004229,8.000000,11.004229
1.9010,3.003984,11.474176,8.470228,11.474176
1.9020,3.003811,11.764711,8.760845,11.764711
1.9030,3.003645,11.764507,8.760845,11.764507
1.9040,3.003488,11.473705,8.470228,11.473705
1.9050,3.003340,11.003223,8.000000,11.003223
1.9060,3.003199,10.533014,7.529772,10.533014
1.9070,3.003066,10.242104,7.239155,10.242104
1.9080,3.002941,10.242099,7.239155,10.242099
1.9090,3.002824,10.532650,7.529772,10.532650
1.9100,3.002713,11.002760,8.000000,11.002760
1.9110,3.002610,11.472722,8.470228,11.472722
1.9120,3.002514,11.763265,8.760845,11.763265
1.9130,3.002424,11.763288,8.760845,11.763288
1.9140,3.002340,11.472514,8.470228,11.472514
1.9150,3.002264,11.002145,8.000000,11.002145
1.9160,3.002193,10.531997,7.529772,10.531997
1.9170,3.002128,10.241272,7.239155,10.241272
1.9180,3.002069,10.241207,7.239155,10.241207
1.9190,3.002015,10.531742,7.529772,10.531742
1.9200,3.001968,11.001979,8.000000,11.001979
1.9210,3.001925,11.472145,8.470228,11.472145
1.9220,3.001888,11.762681,8.760845,11.762681
1.9230,3.001855,11.762718,8.760845,11.762718
1.9240,3.001828,11.472052,8.470228,11.472052
1.9250,3.001805,11.001812,8.000000,11.001812
1.9260,3.001787,10.531589,7.529772,10.531589
1.9270,3.001773,10.240956,7.239155,10.240956
1.9280,3.001764,10.241013,7.239155,10.241013
1.9290,3.001759,10.531593,7.529772,10.531593
1.9300,3.001758,11.001913,8.000000,11.001913
1.9310,3.001761,11.471900,8.470228,11.471900
1.9320,3.001769,11.762623,8.760845,11.762623
1.9330,3.001780,11.762651,8.760845,11.762651
1.9340,3.001794,11.471977,8.470228,11.471977
1.9350,3.001813,11.001822,8.000000,11.001822
1.9360,3.001834,10.531679,7.529772,10.531679
1.9370,3.001860,10.241012,7.239155,10.241012
1.9380,3.001889,10.241040,7.239155,10.241040
1.9390,3.001921,10.531681,7.529772,10.531681
1.9400,3.001956,11.002118,8.000000,11.002118
1.9410,3.001994,11.472165,8.470228,11.472165
1.9420,3.002036,11.762883,8.760845,11.762883
1.9430,3.002081,11.762961,8.760845,11.762961
1.9440,3.002128,11.472427,8.470228,11.472427
1.9450,3.002179,11.002227,8.000000,11.002227
1.9460,3.002233,10.532099,7.529772,10.532099
1.9470,3.002289,10.241509,7.239155,10.241509
1.9480,3.002348,10.241491,7.239155,10.241491
1.9490,3.002410,10.532167,7.529772,10.532167
1.9500,3.002475,11.002551,8.000000,11.002551
1.9510,3.002542,11.472762,8.470228,11.472762
1.9520,3.002612,11.763382,8.760845,11.763382
1.9530,3.002684,11.763616,8.760845,11.763616
1.9540,3.002759,11.472933,8.470228,11.472933
1.9550,3.002837,11.002901,8.000000,11.002901
1.9560,3.002917,10.532712,7.529772,10.532712
1.9570,3.002999,10.242146,7.239155,10.242146
1.9580,3.003084,10.242130,7.239155,10.242130
1.9590,3.003171,10.532836,7.529772,10.532836
1.9600,3.003260,11.003200,8.000000,11.003200
1.9610,3.003352,11.473598,8.470228,11.473598
1.9620,3.003446,11.764257,8.760845,11.764257
1.9630,3.003543,11.764370,8.760845,11.764370
1.9640,3.003641,11.473893,8.470228,11.473893
1.9650,3.003742,11.003870,8.000000,11.003870
1.9660,3.003845,10.533625,7.529772,10.533625
1.9670,3.003949,10.243155,7.239155,10.243155
1.9680,3.004056,10.243237,7.239155,10.243237
1.9690,3.004165,10.533941,7.529772,10.533941
1.9700,3.004276,11.004269,8.000000,11.004269
1.9710,3.004389,11.474718,8.470228,11.474718
1.9720,3.004504,11.765304,8.760845,11.765304
1.9730,3.004620,11.765474,8.760845,11.765474
1.9740,3.004739,11.475015,8.470228,11.475015
1.9750,3.004859,11.004882,8.000000,11.004882
1.9760,3.004981,10.534767,7.529772,10.534767
1.9770,3.005105,10.244247,7.239155,10.244247
1.9780,3.005230,10.244325,7.239155,10.244325
1.9790,3.005357,10.535103,7.529772,10.535103
1.9800,3.005485,11.005458,8.000000,11.005458
1.9810,3.005615,11.475805,8.470228,11.475805
1.9820,3.005746,11.766636,8.760845,11.766636
1.9830,3.005878,11.766631,8.760845,11.766631
1.9840,3.006012,11.476214,8.470228,11.476214
1.9850,3.006147,11.006199,8.000000,11.006199
1.9860,3.006284,10.536141,7.529772,10.536141
1.9870,3.006421,10.245573,7.239155,10.245573
1.9880,3.006559,10.245664,7.239155,10.245664
1.9890,3.006698,10.536479,7.529772,10.536479
1.9900,3.006839,11.006821,8.000000,11.006821
1.9910,3.006980,11.477235,8.470228,11.477235
1.9920,3.007121,11.767989,8.760845,11.767989
1.9930,3.007264,11.768039,8.760845,11.768039
1.9940,3.007407,11.477505,8.470228,11.477505
1.9950,3.007550,11.007517,8.000000,11.007517
1.9960,3.007694,10.537358,7.529772,10.537358
1.9970,3.007838,10.247029,7.239155,10.247029
1.9980,3.007982,10.247044,7.239155,10.247044
1.9990,3.008127,10.537948,7.529772,10.537948
2.0000,3.008272,11.008276,8.000000,11.008276
2.0010,3.008416,11.478703,8.470228,11.478703
2.0020,3.008561,11.769390,8.760845,11.769390
2.0030,3.008705,11.769536,8.760845,11.769536
2.0040,3.008849,11.479073,8.470228,11.479073
2.0050,3.008992,11.009005,8.000000,11.009005
2.0060,3.009135,10.538954,7.529772,10.538954
2.0070,3.009277,10.248430,7.239155,10.248430
2.0080,3.009419,10.248565,7.239155,10.248565
2.0090,3.009560,10.539316,7.529772,10.539316
2.0100,3.009700,11.009681,8.000000,11.009681
2.0110,3.009839,11.480050,8.470228,11.480050
2.0120,3.009976,11.770737,8.760845,11.770737
2.0130,3.010113,11.770975,8.760845,11.770975
2.0140,3.010248,11.480411,8.470228,11.480411
2.0150,3.010382,11.010339,8.000000,11.010339
2.0160,3.010514,10.540290,7.529772,10.540290
2.0170,3.010644,10.249804,7.239155,10.249804
2.0180,3.010773,10.249892,7.239155,10.249892
2.0190,3.010900,10.540736,7.529772,10.540736
2.0200,3.011025,11.011165,8.000000,11.011165
2.0210,3.011148,11.481427,8.470228,11.481427
2.0220,3.011269,11.771923,8.760845,11.771923
2.0230,3.011388,11.772206,8.760845,11.772206
2.0240,3.011504,11.481753,8.470228,11.481753
2.0250,3.011618,11.011558,8.000000,11.011558
2.0260,3.011729,10.541605,7.529772,10.541605
2.0270,3.011837,10.251126,7.239155,10.251126
2.0280,3.011943,10.251076,7.239155,10.251076
2.0290,3.012046,10.541758,7.529772,10.541758
2.0300,3.012147,11.012146,8.000000,11.012146
2.0310,3.012244,11.482355,8.470228,11.482355
2.0320,3.012338,11.773080,8.760845,11.773080
2.0330,3.012429,11.773298,8.760845,11.773298
2.0340,3.012517,11.482717,8.470228,11.482717
2.0350,3.012601,11.012607,8.000000,11.012607
2.0360,3.012682,10.542373,7.529772,10.542373
2.0370,3.012759,10.251934,7.239155,10.251934
2.0380,3.012833,10.252079,7.239155,10.252079
2.0390,3.012904,10.542677,7.529772,10.542677
2.0400,3.012970,11.013003,8.000000,11.013003
2.0410,3.013033,11.483185,8.470228,11.483185
2.0420,3.013093,11.773904,8.760845,11.773904
2.0430,3.013148,11.774015,8.760845,11.774015
2.0440,3.013199,11.483540,8.470228,11.483540
2.0450,3.013247,11.013216,8.000000,11.013216
2.0460,3.013290,10.543136,7.529772,10.543136
2.0470,3.013330,10.252507,7.239155,10.252507
2.0480,3.013365,10.252467,7.239155,10.252467
2.0490,3.013397,10.543123,7.529772,10.543123
2.0500,3.013424,11.013391,8.000000,11.013391
2.0510,3.013447,11.483663,8.470228,11.483663
2.0520,3.013466,11.774288,8.760845,11.774288
2.0530,3.013481,11.774374,8.760845,11.774374
2.0540,3.013491,11.483736,8.470228,11.483736
2.0550,3.013498,11.013455,8.000000,11.013455
2.0560,3.013500,10.543283,7.529772,10.543283
2.0570,3.013498,10.252679,7.239155,10.252679
2.0580,3.013491,10.252672,7.239155,10.252672
2.0590,3.013481,10.543166,7.529772,10.543166
2.0600,3.013466,11.013403,8.000000,11.013403
2.0610,3.013447,11.483802,8.470228,11.483802
2.0620,3.013424,11.774319,8.760845,11.774319
2.0630,3.013397,11.774197,8.760845,11.774197
2.0640,3.013365,11.483602,8.470228,11.483602
2.0650,3.013330,11.013273,8.000000,11.013273
2.0660,3.013290,10.543049,7.529772,10.543049
2.0670,3.013247,10.252405,7.239155,10.252405
2.0680,3.013199,10.252253,7.239155,10.252253
2.0690,3.013148,10.542942,7.529772,10.542942
2.0700,3.013093,11.013018,8.000000,11.013018
2.0710,3.013033,11.483282,8.470228,11.483282
2.0720,3.012970,11.773809,8.760845,11.773809
2.0730,3.012904,11.773776,8.760845,11.773776
2.0740,3.012833,11.483132,8.470228,11.483132
2.0750,3.012759,11.012802,8.000000,11.012802
2.0760,3.012682,10.542493,7.529772,10.542493
2.0770,3.012601,10.251714,7.239155,10.251714
2.0780,3.012516,10.251658,7.239155,10.251658
2.0790,3.012429,10.542206,7.529772,10.542206
2.0800,3.012338,11.012300,8.000000,11.012300
2.0810,3.012244,11.482427,8.470228,11.482427
2.0820,3.012147,11.772986,8.760845,11.772986
2.0830,3.012046,11.772819,8.760845,11.772819
2.0840,3.011943,11.482211,8.470228,11.482211
2.0850,3.011837,11.011830,8.000000,11.011830
2.0860,3.011729,10.541459,7.529772,10.541459
2.0870,3.011618,10.250807,7.239155,10.250807
2.0880,3.011504,10.250755,7.239155,10.250755
2.0890,3.011387,10.541215,7.529772,10.541215
2.0900,3.011269,11.011264,8.000000,11.011264
2.0910,3.011148,11.481339,8.470228,11.481339
2.0920,3.011025,11.771844,8.760845,11.771844
2.0930,3.010900,11.771858,8.760845,11.771858
2.0940,3.010773,11.480954,8.470228,11.480954
2.0950,3.010644,11.010673,8.000000,11.010673
2.0960,3.010514,10.540368,7.529772,10.540368
2.0970,3.010381,10.249543,7.239155,10.249543
2.0980,3.010248,10.249431,7.239155,10.249431
2.0990,3.010112,10.539793,7.529772,10.539793
2.1000,3.009976,11.010025,8.000000,11.010025
2.1010,3.009838,11.480096,8.470228,11.480096
2.1020,3.009699,11.770529,8.760845,11.770529
2.1030,3.009559,11.770497,8.760845,11.770497
2.1040,3.009418,11.479599,8.470228,11.479599
2.1050,3.009277,11.009282,8.000000,11.009282
2.1060,3.009134,10.538895,7.529772,10.538895
2.1070,3.008991,10.248169,7.239155,10.248169
2.1080,3.008848,10.248072,7.239155,10.248072
2.1090,3.008704,10.538488,7.529772,10.538488
2.1100,3.008560,11.008563,8.000000,11.008563
2.1110,3.008415,11.478599,8.470228,11.478599
2.1120,3.008270,11.769212,8.760845,11.769212
2.1130,3.008126,11.768966,8.760845,11.768966
2.1140,3.007981,11.478167,8.470228,11.478167
2.1150,3.007836,11.007856,8.000000,11.007856
2.1160,3.007692,10.537383,7.529772,10.537383
2.1170,3.007548,10.246700,7.239155,10.246700
2.1180,3.007404,10.246555,7.239155,10.246555
2.1190,3.007261,10.537123,7.529772,10.537123
2.1200,3.007118,11.007154,8.000000,11.007154
2.1210,3.006976,11.477282,8.470228,11.477282
2.1220,3.006835,11.767717,8.760845,11.767717
2.1230,3.006694,11.767471,8.760845,11.767471
2.1240,3.006555,11.476744,8.470228,11.476744
2.1250,3.006416,11.006432,8.000000,11.006432
2.1260,3.006278,10.536073,7.529772,10.536073
2.1270,3.006141,10.245230,7.239155,10.245230
2.1280,3.006005,10.245029,7.239155,10.245029
2.1290,3.005871,10.535794,7.529772,10.535794
2.1300,3.005738,11.005707,8.000000,11.005707
2.1310,3.005606,11.475753,8.470228,11.475753
2.1320,3.005475,11.766249,8.760845,11.766249
2.1330,3.005346,11.766234,8.760845,11.766234
2.1340,3.005218,11.475435,8.470228,11.475435
2.1350,3.005091,11.005153,8.000000,11.005153
2.1360,3.004966,10.534738,7.529772,10.534738
2.1370,3.004843,10.243985,7.239155,10.243985
2.1380,3.004721,10.243875,7.239155,10.243875
2.1390,3.004601,10.534443,7.529772,10.534443
2.1400,3.004482,11.004445,8.000000,11.004445
2.1410,3.004366,11.474522,8.470228,11.474522
2.1420,3.004251,11.765099,8.760845,11.765099
2.1430,3.004137,11.764999,8.760845,11.764999
2.1440,3.004026,11.474247,8.470228,11.474247
2.1450,3.003916,11.003905,8.000000,11.003905
2.1460,3.003808,10.533530,7.529772,10.533530
2.1470,3.003702,10.242981,7.239155,10.242981
2.1480,3.003597,10.242755,7.239155,10.242755
2.1490,3.003495,10.533325,7.529772,10.533325
2.1500,3.003394,11.003366,8.000000,11.003366
2.1510,3.003295,11.473490,8.470228,11.473490
2.1520,3.003198,11.763975,8.760845,11.763975
2.1530,3.003103,11.763990,8.760845,11.763990
2.1540,3.003010,11.473306,8.470228,11.473306
2.1550,3.002919,11.002929,8.000000,11.002929
2.1560,3.002830,10.532720,7.529772,10.532720
2.1570,3.002742,10.241866,7.239155,10.241866
2.1580,3.002657,10.241679,7.239155,10.241679
2.1590,3.002573,10.532274,7.529772,10.532274
2.1600,3.002491,11.002419,8.000000,11.002419
2.1610,3.002411,11.472683,8.470228,11.472683
2.1620,3.002333,11.763161,8.760845,11.763161
2.1630,3.002256,11.763161,8.760845,11.763161
2.1640,3.002182,11.472485,8.470228,11.472485
2.1650,3.002109,11.002107,8.000000,11.002107
2.1660,3.002038,10.531838,7.529772,10.531838
2.1670,3.001969,10.241308,7.239155,10.241308
2.1680,3.001902,10.241038,7.239155,10.241038
2.1690,3.001836,10.531580,7.529772,10.531580
2.1700,3.001772,11.001811,8.000000,11.001811
2.1710,3.001710,11.471903,8.470228,11.471903
2.1720,3.001649,11.762528,8.760845,11.762528
2.1730,3.001590,11.762513,8.760845,11.762513
2.1740,3.001533,11.471715,8.470228,11.471715
2.1750,3.001477,11.001448,8.000000,11.001448
2.1760,3.001423,10.531258,7.529772,10.531258
2.1770,3.001370,10.240514,7.239155,10.240514
2.1780,3.001319,10.240519,7.239155,10.240519
2.1790,3.001270,10.531079,7.529772,10.531079
2.1800,3.001222,11.001200,8.000000,11.001200
2.1810,3.001175,11.471436,8.470228,11.471436
2.1820,3.001130,11.762051,8.760845,11.762051
2.1830,3.001086,11.761924,8.760845,11.761924
2.1840,3.001044,11.471215,8.470228,11.471215
2.1850,3.001003,11.000937,8.000000,11.000937
2.1860,3.000963,10.530745,7.529772,10.530745
2.1870,3.000924,10.240001,7.239155,10.240001
2.1880,3.000887,10.240037,7.239155,10.240037
2.1890,3.000851,10.530670,7.529772,10.530670
2.1900,3.000816,11.000864,8.000000,11.000864
2.1910,3.000783,11.470979,8.470228,11.470979
2.1920,3.000750,11.761541,8.760845,11.761541
2.1930,3.000719,11.761581,8.760845,11.761581
2.1940,3.000689,11.470907,8.470228,11.470907
2.1950,3.000660,11.000610,8.000000,11.000610
2.1960,3.000631,10.530462,7.529772,10.530462
2.1970,3.000604,10.239678,7.239155,10.239678
2.1980,3.000578,10.239779,7.239155,10.239779
2.1990,3.000553,10.530303,7.529772,10.530303
2.2000,3.000529,11.000516,8.000000,11.000516
2.2010,3.000505,11.470793,8.470228,11.470793
2.2020,3.000483,11.761415,8.760845,11.761415
2.2030,3.000461,11.761288,8.760845,11.761288
2.2040,3.000441,11.470529,8.470228,11.470529
2.2050,3.000421,11.000416,8.000000,11.000416
2.2060,3.000401,10.530078,7.529772,10.530078
2.2070,3.000383,10.239470,7.239155,10.239470
2.2080,3.000365,10.239578,7.239155,10.239578
2.2090,3.000348,10.530190,7.529772,10.530190
2.2100,3.000332,11.000321,8.000000,11.000321
2.2110,3.000316,11.470504,8.470228,11.470504
2.2120,3.000301,11.761151,8.760845,11.761151
2.2130,3.000287,11.761097,8.760845,11.761097
2.2140,3.000273,11.470429,8.470228,11.470429
2.2150,3.000260,11.000346,8.000000,11.000346
2.2160,3.000247,10.530039,7.529772,10.530039
2.2170,3.000235,10.239434,7.239155,10.239434
2.2180,3.000224,10.239400,7.239155,10.239400
2.2190,3.000213,10.530130,7.529772,10.530130
2.2200,3.000202,11.000107,8.000000,11.000107
2.2210,3.000192,11.470450,8.470228,11.470450
2.2220,3.000182,11.761092,8.760845,11.761092
2.2230,3.000173,11.760946,8.760845,11.760946
2.2240,3.000164,11.470343,8.470228,11.470343
2.2250,3.000156,11.000172,8.000000,11.000172
2.2260,3.000148,10.529861,7.529772,10.529861
2.2270,3.000140,10.239251,7.239155,10.239251
2.2280,3.000133,10.239228,7.239155,10.239228
2.2290,3.000126,10.529993,7.529772,10.529993
2.2300,3.000119,11.000104,8.000000,11.000104
2.2310,3.000113,11.470302,8.470228,11.470302
2.2320,3.000107,11.760967,8.760845,11.760967
2.2330,3.000101,11.760983,8.760845,11.760983
2.2340,3.000096,11.470369,8.470228,11.470369
2.2350,3.000090,11.000146,8.000000,11.000146
2.2360,3.000085,10.529840,7.529772,10.529840
2.2370,3.000081,10.239202,7.239155,10.239202
2.2380,3.000076,10.239176,7.239155,10.239176
2.2390,3.000072,10.529811,7.529772,10.529811
2.2400,3.000068,11.000094,8.000000,11.000094
2.2410,3.000064,11.470172,8.470228,11.470172
2.2420,3.000061,11.760943,8.760845,11.760943
2.2430,3.000057,11.760911,8.760845,11.760911
2.2440,3.000054,11.470258,8.470228,11.470258
2.2450,3.000051,11.000078,8.000000,11.000078
2.2460,3.000048,10.529801,7.529772,10.529801
2.2470,3.000045,10.239280,7.239155,10.239280
2.2480,3.000043,10.239203,7.239155,10.239203
2.2490,3.000040,10.529768,7.529772,10.529768
2.2500,3.000038,10.999965,8.000000,10.999965
2.2510,3.000035,11.470189,8.470228,11.470189
2.2520,3.000033,11.761004,8.760845,11.761004
2.2530,3.000031,11.760812,8.760845,11.760812
2.2540,3.000030,11.470214,8.470228,11.470214
2.2550,3.000028,11.000048,8.000000,11.000048
2.2560,3.000026,10.529804,7.529772,10.529804
2.2570,3.000024,10.239214,7.239155,10.239214
2.2580,3.000023,10.239157,7.239155,10.239157
2.2590,3.000022,10.529745,7.529772,10.529745
2.2600,3.000020,10.999950,8.000000,10.999950
2.2610,3.000019,11.470239,8.470228,11.470239
2.2620,3.000018,11.760798,8.760845,11.760798
2.2630,3.000017,11.760888,8.760845,11.760888
2.2640,3.000016,11.470142,8.470228,11.470142
2.2650,3.000015,11.000022,8.000000,11.000022
2.2660,3.000014,10.529735,7.529772,10.529735
2.2670,3.000013,10.239227,7.239155,10.239227
2.2680,3.000012,10.239193,7.239155,10.239193
2.2690,3.000011,10.529755,7.529772,10.529755
2.2700,3.000011,10.999977,8.000000,10.999977
2.2710,3.000010,11.470255,8.470228,11.470255
2.2720,3.000009,11.760849,8.760845,11.760849
2.2730,3.000009,11.760972,8.760845,11.760972
2.2740,3.000008,11.470254,8.470228,11.470254
2.2750,3.000008,10.999940,8.000000,10.999940
2.2760,3.000007,10.529779,7.529772,10.529779
2.2770,3.000007,10.239170,7.239155,10.239170
2.2780,3.000006,10.239215,7.239155,10.239215
2.2790,3.000006,10.529630,7.529772,10.529630
2.2800,3.000005,11.000043,8.000000,11.000043
2.2810,3.000005,11.470257,8.470228,11.470257
2.2820,3.000005,11.760898,8.760845,11.760898
2.2830,3.000004,11.760793,8.760845,11.760793
2.2840,3.000004,11.470256,8.470228,11.470256
2.2850,3.000004,11.000016,8.000000,11.000016
2.2860,3.000003,10.529807,7.529772,10.529807
2.2870,3.000003,10.239133,7.239155,10.239133
2.2880,3.000003,10.239200,7.239155,10.239200
2.2890,3.000003,10.529820,7.529772,10.529820
2.2900,3.000003,11.000071,8.000000,11.000071
2.2910,3.000002,11.470301,8.470228,11.470301
2.2920,3.000002,11.760899,8.760845,11.760899
2.2930,3.000002,11.760869,8.760845,11.760869
2.2940,3.000002,11.470279,8.470228,11.470279
2.2950,3.000002,11.000082,8.000000,11.000082
2.2960,3.000002,10.529779,7.529772,10.529779
2.2970,3.000002,10.239169,7.239155,10.239169
2.2980,3.000001,10.239144,7.239155,10.239144
2.2990,3.000001,10.529684,7.529772,10.529684
2.3000,3.000001,11.000026,8.000000,11.000026
2.3010,3.000001,11.470215,8.470228,11.470215
2.3020,3.000001,11.760925,8.760845,11.760925
2.3030,3.000001,11.760778,8.760845,11.760778
2.3040,3.000001,11.470220,8.470228,11.470220
2.3050,3.000001,11.000011,8.000000,11.000011
2.3060,3.000001,10.529810,7.529772,10.529810
2.3070,3.000001,10.239176,7.239155,10.239176
2.3080,3.000001,10.239125,7.239155,10.239125
2.3090,3.000001,10.529799,7.529772,10.529799
2.3100,3.000001,11.000020,8.000000,11.000020
2.3110,3.000001,11.470230,8.470228,11.470230
2.3120,3.000000,11.760852,8.760845,11.760852
2.3130,3.000000,11.760830,8.760845,11.760830
2.3140,3.000000,11.470168,8.470228,11.470168
2.3150,3.000000,10.999925,8.000000,10.999925
2.3160,3.000000,10.529652,7.529772,10.529652
2.3170,3.000000,10.239157,7.239155,10.239157
2.3180,3.000000,10.239251,7.239155,10.239251
2.3190,3.000000,10.529818,7.529772,10.529818
2.3200,3.000000,11.000048,8.000000,11.000048
2.3210,3.000000,11.470246,8.470228,11.470246
2.3220,3.000000,11.760940,8.760845,11.760940
2.3230,3.000000,11.760896,8.760845,11.760896
2.3240,3.000000,11.470208,8.470228,11.470208
2.3250,3.000000,11.000017,8.000000,11.000017
2.3260,3.000000,10.529797,7.529772,10.529797
2.3270,3.000000,10.239219,7.239155,10.239219
2.3280,3.000000,10.239101,7.239155,10.239101
2.3290,3.000000,10.529775,7.529772,10.529775
2.3300,3.000000,10.999987,8.000000,10.999987
2.3310,3.000000,11.470137,8.470228,11.470137
2.3320,3.000000,11.760864,8.760845,11.760864
2.3330,3.000000,11.760750,8.760845,11.760750
2.3340,3.000000,11.470194,8.470228,11.470194
2.3350,3.000000,11.000090,8.000000,11.000090
2.3360,3.000000,10.529838,7.529772,10.529838
2.3370,3.000000,10.239090,7.239155,10.239090
2.3380,3.000000,10.239158,7.239155,10.239158
2.3390,3.000000,10.529759,7.529772,10.529759
2.3400,3.000000,10.999985,8.000000,10.999985
2.3410,3.000000,11.470295,8.470228,11.470295
2.3420,3.000000,11.760970,8.760845,11.760970
2.3430,3.000000,11.760838,8.760845,11.760838
2.3440,3.000000,11.470181,8.470228,11.470181
2.3450,3.000000,10.999959,8.000000,10.999959
2.3460,3.000000,10.529776,7.529772,10.529776
2.3470,3.000000,10.239255,7.239155,10.239255
2.3480,3.000000,10.239278,7.239155,10.239278
2.3490,3.000000,10.529701,7.529772,10.529701
2.3500,3.000000,11.000021,8.000000,11.000021
2.3510,3.000000,11.470186,8.470228,11.470186
2.3520,3.000000,11.760844,8.760845,11.760844
2.3530,3.000000,11.760853,8.760845,11.760853
2.3540,3.000000,11.470179,8.470228,11.470179
2.3550,3.000000,11.000022,8.000000,11.000022
2.3560,3.000000,10.529850,7.529772,10.529850
2.3570,3.000000,10.239102,7.239155,10.239102
2.3580,3.000000,10.239220,7.239155,10.239220
2.3590,3.000000,10.529784,7.529772,10.529784
2.3600,3.000000,10.999810,8.000000,10.999810
2.3610,3.000000,11.470256,8.470228,11.470256
2.3620,3.000000,11.760844,8.760845,11.760844
2.3630,3.000000,11.760838,8.760845,11.760838
2.3640,3.000000,11.470250,8.470228,11.470250
2.3650,3.000000,10.999904,8.000000,10.999904
2.3660,3.000000,10.529811,7.529772,10.529811
2.3670,3.000000,10.239198,7.239155,10.239198
2.3680,3.000000,10.239131,7.239155,10.239131
2.3690,3.000000,10.529836,7.529772,10.529836
2.3700,3.000000,11.000018,8.000000,11.000018
2.3710,3.000000,11.470241,8.470228,11.470241
2.3720,3.000000,11.760695,8.760845,11.760695
2.3730,3.000000,11.760899,8.760845,11.760899
2.3740,3.000000,11.470221,8.470228,11.470221
2.3750,3.000000,11.000123,8.000000,11.000123
2.3760,3.000000,10.529706,7.529772,10.529706
2.3770,3.000000,10.238988,7.239155,10.238988
2.3780,3.000000,10.239183,7.239155,10.239183
2.3790,3.000000,10.529806,7.529772,10.529806
2.3800,3.000000,10.999947,8.000000,10.999947
2.3810,3.000000,11.470260,8.470228,11.470260
2.3820,3.000000,11.760978,8.760845,11.760978
2.3830,3.000000,11.760844,8.760845,11.760844
2.3840,3.000000,11.470185,8.470228,11.470185
2.3850,3.000000,10.999999,8.000000,10.999999
2.3860,3.000000,10.529761,7.529772,10.529761
2.3870,3.000000,10.239145,7.239155,10.239145
2.3880,3.000000,10.239185,7.239155,10.239185
2.3890,3.000000,10.529718,7.529772,10.529718
2.3900,3.000000,10.999886,8.000000,10.999886
2.3910,3.000000,11.470111,8.470228,11.470111
2.3920,3.000000,11.760881,8.760845,11.760881
2.3930,3.000000,11.760907,8.760845,11.760907
2.3940,3.000000,11.470189,8.470228,11.470189
2.3950,3.000000,10.999966,8.000000,10.999966
2.3960,3.000000,10.529854,7.529772,10.529854
2.3970,3.000000,10.239105,7.239155,10.239105
2.3980,3.000000,10.239187,7.239155,10.239187
2.3990,3.000000,10.529826,7.529772,10.529826
2.4000,3.000000,10.999908,8.000000,10.999908
2.4010,3.000000,11.470324,8.470228,11.470324
2.4020,3.000000,11.760866,8.760845,11.760866
2.4030,3.000000,11.760962,8.760845,11.760962
2.4040,3.000000,11.470179,8.470228,11.470179
2.4050,3.000000,11.000110,8.000000,11.000110
2.4060,3.000000,10.529858,7.529772,10.529858
2.4070,3.000000,10.239166,7.239155,10.239166
2.4080,3.000000,10.239192,7.239155,10.239192
2.4090,3.000000,10.529743,7.529772,10.529743
2.4100,3.000000,10.999989,8.000000,10.999989
2.4110,3.000000,11.470297,8.470228,11.470297
2.4120,3.000000,11.760827,8.760845,11.760827
2.4130,3.000000,11.760801,8.760845,11.760801
2.4140,3.000000,11.470223,8.470228,11.470223
2.4150,3.000000,10.999959,8.000000,10.999959
2.4160,3.000000,10.529656,7.529772,10.529656
2.4170,3.000000,10.239168,7.239155,10.239168
2.4180,3.000000,10.239182,7.239155,10.239182
2.4190,3.000000,10.529705,7.529772,10.529705
2.4200,3.000000,11.000109,8.000000,11.000109
2.4210,3.000000,11.470169,8.470228,11.470169
2.4220,3.000000,11.760819,8.760845,11.760819
2.4230,3.000000,11.760940,8.760845,11.760940
2.4240,3.000000,11.470249,8.470228,11.470249
2.4250,3.000000,10.999970,8.000000,10.999970
2.4260,3.000000,10.529765,7.529772,10.529765
2.4270,3.000000,10.239181,7.239155,10.239181
2.4280,3.000000,10.239280,7.239155,10.239280
2.4290,3.000000,10.529735,7.529772,10.529735
2.4300,3.000000,10.999985,8.000000,10.999985
2.4310,3.000000,11.470235,8.470228,11.470235
2.4320,3.000000,11.760843,8.760845,11.760843
2.4330,3.000000,11.760917,8.760845,11.760917
2.4340,3.000000,11.470175,8.470228,11.470175
2.4350,3.000000,11.000016,8.000000,11.000016
2.4360,3.000000,10.529691,7.529772,10.529691
2.4370,3.000000,10.239176,7.239155,10.239176
2.4380,3.000000,10.239140,7.239155,10.239140
2.4390,3.000000,10.529706,7.529772,10.529706
2.4400,3.000000,11.000019,8.000000,11.000019
2.4410,3.000000,11.470250,8.470228,11.470250
2.4420,3.000000,11.760832,8.760845,11.760832
2.4430,3.000000,11.760864,8.760845,11.760864
2.4440,3.000000,11.470161,8.470228,11.470161
2.4450,3.000000,10.999912,8.000000,10.999912
2.4460,3.000000,10.529895,7.529772,10.529895
2.4470,3.000000,10.239199,7.239155,10.239199
2.4480,3.000000,10.239123,7.239155,10.239123
2.4490,3.000000,10.529790,7.529772,10.529790
2.4500,3.000000,10.999864,8.000000,10.999864
2.4510,3.000000,11.470240,8.470228,11.470240
2.4520,3.000000,11.760786,8.760845,11.760786
2.4530,3.000000,11.760838,8.760845,11.760838
2.4540,3.000000,11.470203,8.470228,11.470203
2.4550,3.000000,10.999882,8.000000,10.999882
2.4560,3.000000,10.529810,7.529772,10.529810
2.4570,3.000000,10.239127,7.239155,10.239127
2.4580,3.000000,10.239254,7.239155,10.239254
2.4590,3.000000,10.529691,7.529772,10.529691
2.4600,3.000000,11.000059,8.000000,11.000059
2.4610,3.000000,11.470162,8.470228,11.470162
2.4620,3.000000,11.760769,8.760845,11.760769
2.4630,3.000000,11.760862,8.760845,11.760862
2.4640,3.000000,11.470270,8.470228,11.470270
2.4650,3.000000,10.999988,8.000000,10.999988
2.4660,3.000000,10.529784,7.529772,10.529784
2.4670,3.000000,10.239025,7.239155,10.239025
2.4680,3.000000,10.239163,7.239155,10.239163
2.4690,3.000000,10.529709,7.529772,10.529709
2.4700,3.000000,11.000057,8.000000,11.000057
2.4710,3.000000,11.470129,8.470228,11.470129
2.4720,3.000000,11.760841,8.760845,11.760841
2.4730,3.000000,11.760873,8.760845,11.760873
2.4740,3.000000,11.470211,8.470228,11.470211
2.4750,3.000000,10.999965,8.000000,10.999965
2.4760,3.000000,10.529812,7.529772,10.529812
2.4770,3.000000,10.239088,7.239155,10.239088
2.4780,3.000000,10.239190,7.239155,10.239190
2.4790,3.000000,10.529739,7.529772,10.529739
2.4800,3.000000,10.999891,8.000000,10.999891
2.4810,3.000000,11.470231,8.470228,11.470231
2.4820,3.000000,11.760855,8.760845,11.760855
2.4830,3.000000,11.760899,8.760845,11.760899
2.4840,3.000000,11.470163,8.470228,11.470163
2.4850,3.000000,11.000013,8.000000,11.000013
2.4860,3.000000,10.529799,7.529772,10.529799
2.4870,3.000000,10.239149,7.239155,10.239149
2.4880,3.000000,10.239018,7.239155,10.239018
2.4890,3.000000,10.529758,7.529772,10.529758
2.4900,3.000000,11.000045,8.000000,11.000045
2.4910,3.000000,11.470254,8.470228,11.470254
2.4920,3.000000,11.760879,8.760845,11.760879
2.4930,3.000000,11.760921,8.760845,11.760921
2.4940,3.000000,11.470323,8.470228,11.470323
2.4950,3.000000,11.000091,8.000000,11.000091
2.4960,3.000000,10.529777,7.529772,10.529777
2.4970,3.000000,10.239145,7.239155,10.239145
2.4980,3.000000,10.239162,7.239155,10.239162
2.4990,3.000000,10.529707,7.529772,10.529707
2.5000,3.000000,10.999984,8.000000,10.999984
2.5010,3.000000,11.470182,8.470228,11.470182
2.5020,3.000000,11.760877,8.760845,11.760877
2.5030,3.000000,11.760832,8.760845,11.760832
2.5040,3.000000,11.470202,8.470228,11.470202
2.5050,3.000000,10.999896,8.000000,10.999896
2.5060,3.000000,10.529858,7.529772,10.529858
2.5070,3.000000,10.239096,7.239155,10.239096
2.5080,3.000000,10.239284,7.239155,10.239284
2.5090,3.000000,10.529785,7.529772,10.529785
2.5100,3.000000,10.999996,8.000000,10.999996
2.5110,3.000000,11.470246,8.470228,11.470246
2.5120,3.000000,11.760832,8.760845,11.760832
2.5130,3.000000,11.760748,8.760845,11.760748
2.5140,3.000000,11.470173,8.470228,11.470173
2.5150,3.000000,11.000025,8.000000,11.000025
2.5160,3.000000,10.529696,7.529772,10.529696
2.5170,3.000000,10.239110,7.239155,10.239110
2.5180,3.000000,10.239119,7.239155,10.239119
2.5190,3.000000,10.529788,7.529772,10.529788
2.5200,3.000000,10.999950,8.000000,10.999950
2.5210,3.000000,11.470328,8.470228,11.470328
2.5220,3.000000,11.760841,8.760845,11.760841
2.5230,3.000000,11.760802,8.760845,11.760802
2.5240,3.000000,11.470290,8.470228,11.470290
2.5250,3.000000,10.999961,8.000000,10.999961
2.5260,3.000000,10.529753,7.529772,10.529753
2.5270,3.000000,10.239176,7.239155,10.239176
2.5280,3.000000,10.239220,7.239155,10.239220
2.5290,3.000000,10.529684,7.529772,10.529684
2.5300,3.000000,10.999991,8.000000,10.999991
2.5310,3.000000,11.470249,8.470228,11.470249
2.5320,3.000000,11.760849,8.760845,11.760849
2.5330,3.000000,11.760883,8.760845,11.760883
2.5340,3.000000,11.470218,8.470228,11.470218
2.5350,3.000000,11.000116,8.000000,11.000116
2.5360,3.000000,10.529723,7.529772,10.529723
2.5370,3.000000,10.239107,7.239155,10.239107
2.5380,3.000000,10.239090,7.239155,10.239090
2.5390,3.000000,10.529717,7.529772,10.529717
2.5400,3.000000,11.000041,8.000000,11.000041
2.5410,3.000000,11.470200,8.470228,11.470200
2.5420,3.000000,11.760820,8.760845,11.760820
2.5430,3.000000,11.760887,8.760845,11.760887
2.5440,3.000000,11.470212,8.470228,11.470212
2.5450,3.000000,10.999962,8.000000,10.999962
2.5460,3.000000,10.529814,7.529772,10.529814
2.5470,3.002798,10.242039,7.239155,10.242039
2.5480,3.002957,10.242092,7.239155,10.242092
2.5490,3.003123,10.532944,7.529772,10.532944
2.5500,3.003297,11.003222,8.000000,11.003222
2.5510,3.003479,11.473638,8.470228,11.473638
2.5520,3.003668,11.764570,8.760845,11.764570
2.5530,3.003866,11.764722,8.760845,11.764722
2.5540,3.004072,11.474329,8.470228,11.474329
2.5550,3.004287,11.004219,8.000000,11.004219
2.5560,3.004510,10.534351,7.529772,10.534351
2.5570,3.004743,10.243839,7.239155,10.243839
2.5580,3.004985,10.244290,7.239155,10.244290
2.5590,3.005236,10.535084,7.529772,10.535084
2.5600,3.005497,11.005500,8.000000,11.005500
2.5610,3.005767,11.476009,8.470228,11.476009
2.5620,3.006048,11.766897,8.760845,11.766897
2.5630,3.006339,11.767187,8.760845,11.767187
2.5640,3.006639,11.476830,8.470228,11.476830
2.5650,3.006951,11.006964,8.000000,11.006964
2.5660,3.007273,10.537003,7.529772,10.537003
2.5670,3.007605,10.246871,7.239155,10.246871
2.5680,3.007949,10.247086,7.239155,10.247086
2.5690,3.008303,10.537965,7.529772,10.537965
2.5700,3.008669,11.008714,8.000000,11.008714
2.5710,3.009045,11.479309,8.470228,11.479309
2.5720,3.009432,11.770298,8.760845,11.770298
2.5730,3.009831,11.770680,8.760845,11.770680
2.5740,3.010241,11.480549,8.470228,11.480549
2.5750,3.010662,11.010651,8.000000,11.010651
2.5760,3.011094,10.540950,7.529772,10.540950
2.5770,3.011537,10.250652,7.239155,10.250652
2.5780,3.011991,10.251004,7.239155,10.251004
2.5790,3.012456,10.542222,7.529772,10.542222
2.5800,3.012932,11.012959,8.000000,11.012959
2.5810,3.013419,11.483507,8.470228,11.483507
2.5820,3.013916,11.774794,8.760845,11.774794
2.5830,3.014424,11.775340,8.760845,11.775340
2.5840,3.014942,11.485187,8.470228,11.485187
2.5850,3.015469,11.015454,8.000000,11.015454
2.5860,3.016007,10.545776,7.529772,10.545776
2.5870,3.016554,10.255713,7.239155,10.255713
2.5880,3.017111,10.256260,7.239155,10.256260
2.5890,3.017676,10.547526,7.529772,10.547526
2.5900,3.018250,11.018275,8.000000,11.018275
2.5910,3.018832,11.488913,8.470228,11.488913
2.5920,3.019421,11.780245,8.760845,11.780245
2.5930,3.020018,11.780835,8.760845,11.780835
2.5940,3.020622,11.490851,8.470228,11.490851
2.5950,3.021233,11.021187,8.000000,11.021187
2.5960,3.021849,10.551652,7.529772,10.551652
2.5970,3.022470,10.261663,7.239155,10.261663
2.5980,3.023097,10.262204,7.239155,10.262204
2.5990,3.023728,10.553522,7.529772,10.553522
2.6000,3.024362,11.024309,8.000000,11.024309
2.6010,3.025000,11.495281,8.470228,11.495281
2.6020,3.025640,11.786477,8.760845,11.786477
2.6030,3.026282,11.787103,8.760845,11.787103
2.6040,3.026924,11.497234,8.470228,11.497234
2.6050,3.027568,11.027520,8.000000,11.027520
2.6060,3.028211,10.557995,7.529772,10.557995
2.6070,3.028853,10.268132,7.239155,10.268132
2.6080,3.029493,10.268651,7.239155,10.268651
2.6090,3.030130,10.559881,7.529772,10.559881
2.6100,3.030765,11.030799,8.000000,11.030799
2.6110,3.031395,11.501639,8.470228,11.501639
2.6120,3.032020,11.792881,8.760845,11.792881
2.6130,3.032640,11.793463,8.760845,11.793463
2.6140,3.033253,11.503466,8.470228,11.503466
2.6150,3.033859,11.033786,8.000000,11.033786
2.6160,3.034457,10.564279,7.529772,10.564279
2.6170,3.035045,10.274151,7.239155,10.274151
2.6180,3.035625,10.274792,7.239155,10.274792
2.6190,3.036193,10.566009,7.529772,10.566009
2.6200,3.036750,11.036754,8.000000,11.036754
2.6210,3.037295,11.507500,8.470228,11.507500
2.6220,3.037828,11.798726,8.760845,11.798726
2.6230,3.038346,11.799233,8.760845,11.799233
2.6240,3.038850,11.509126,8.470228,11.509126
2.6250,3.039339,11.039301,8.000000,11.039301
2.6260,3.039811,10.569599,7.529772,10.569599
2.6270,3.040267,10.279463,7.239155,10.279463
2.6280,3.040706,10.279823,7.239155,10.279823
2.6290,3.041126,10.570884,7.529772,10.570884
2.6300,3.041528,11.041525,8.000000,11.041525
2.6310,3.041911,11.512209,8.470228,11.512209
2.6320,3.042273,11.803132,8.760845,11.803132
2.6330,3.042615,11.803552,8.760845,11.803552
2.6340,3.042936,11.513229,8.470228,11.513229
2.6350,3.043235,11.043361,8.000000,11.043361
2.6360,3.043512,10.573283,7.529772,10.573283
2.6370,3.043767,10.282844,7.239155,10.282844
2.6380,3.043998,10.283180,7.239155,10.283180
2.6390,3.044207,10.573952,7.529772,10.573952
2.6400,3.044391,11.044310,8.000000,11.044310
2.6410,3.044552,11.514748,8.470228,11.514748
2.6420,3.044688,11.805528,8.760845,11.805528
2.6430,3.044800,11.805778,8.760845,11.805778
2.6440,3.044887,11.515235,8.470228,11.515235
2.6450,3.044950,11.044916,8.000000,11.044916
2.6460,3.044987,10.574768,7.529772,10.574768
2.6470,3.045000,10.284125,7.239155,10.284125
2.6480,3.044988,10.284130,7.239155,10.284130
2.6490,3.044950,10.574671,7.529772,10.574671
2.6500,3.044888,11.044901,8.000000,11.044901
2.6510,3.044801,11.515067,8.470228,11.515067
2.6520,3.044689,11.805522,8.760845,11.805522
2.6530,3.044553,11.805434,8.760845,11.805434
2.6540,3.044392,11.514566,8.470228,11.514566
2.6550,3.044208,11.044184,8.000000,11.044184
2.6560,3.044000,10.573763,7.529772,10.573763
2.6570,3.043768,10.282963,7.239155,10.282963
2.6580,3.043514,10.282700,7.239155,10.282700
2.6590,3.043237,10.573059,7.529772,10.573059
2.6600,3.042938,11.042918,8.000000,11.042918
2.6610,3.042617,11.512941,8.470228,11.512941
2.6620,3.042275,11.803029,8.760845,11.803029
2.6630,3.041913,11.802803,8.760845,11.802803
2.6640,3.041531,11.511800,8.470228,11.511800
